id,value
'62_0_I',-0.111188
'62_1_I',0.037859
'62_2_I',0.039841
'62_3_I',0.118955
'62_4_I',-0.034221
'62_5_I',-0.022689
'62_6_I',-0.021354
'62_7_I',-0.050673
'62_8_I',-0.213575
'62_9_I',0.148655
'62_10_I',0.141193
'62_11_I',-0.086916
'62_12_I',0.028579
'62_13_I',0.003046
'62_14_I',0.012844
'62_15_I',-0.124904
'62_16_I',0.031978
'62_17_I',0.160551
'62_18_I',0.362567
'62_19_I',0.151866
'62_20_I',0.130472
'62_21_I',0.072498
'62_22_I',0.069790
'62_23_I',0.230314
'62_24_I',0.170409
'62_25_I',0.083465
'62_26_I',0.050560
'62_27_I',0.142213
'62_28_I',0.110674
'62_29_I',0.169113
'62_30_I',0.152323
'62_31_I',0.219781
'62_32_I',0.059886
'62_33_I',0.301122
'62_34_I',0.475253
'62_35_I',0.322255
'62_36_I',0.230196
'62_37_I',0.301919
'62_38_I',0.118216
'62_39_I',0.066144
'62_40_I',0.307161
'62_41_I',0.181262
'62_42_I',0.105660
'62_43_I',0.157485
'62_44_I',0.137671
'62_45_I',0.269316
'62_46_I',0.319195
'62_47_I',0.354830
'62_48_I',0.360524
'62_49_I',0.351586
'62_50_I',0.260327
'62_51_I',0.223612
'62_52_I',0.140021
'62_53_I',0.405635
'62_54_I',0.282690
'62_55_I',0.264174
'62_56_I',0.427890
'62_57_I',0.224760
'62_58_I',0.402677
'62_59_I',0.353425
'62_60_I',0.224512
'62_61_I',0.325193
'62_62_I',0.434501
'62_63_I',0.421147
'62_64_I',0.495466
'62_65_I',0.384025
'62_66_I',0.691672
'62_67_I',0.266588
'62_68_I',0.322897
'62_69_I',0.360757
'62_70_I',0.228998
'62_71_I',0.479099
'62_72_I',0.469126
'62_73_I',0.384542
'62_74_I',0.333016
'62_75_I',0.240712
'62_76_I',0.314995
'62_77_I',0.471940
'62_78_I',0.379944
'62_79_I',0.362008
'62_80_I',0.458316
'62_81_I',0.527408
'62_82_I',0.440661
'62_83_I',0.449701
'62_84_I',0.558677
'62_85_I',0.442227
'62_86_I',0.396863
'62_87_I',0.498164
'62_88_I',0.408187
'62_89_I',0.400003
'62_90_I',0.567033
'62_91_I',0.413276
'62_92_I',0.179702
'62_93_I',0.482456
'62_94_I',0.410973
'62_95_I',0.424168
'62_96_I',0.500867
'62_97_I',0.441395
'62_98_I',0.481857
'62_99_I',0.260428
'62_100_I',0.370584
'62_101_I',0.607450
'62_102_I',0.467296
'62_103_I',0.303832
'62_104_I',0.365892
'62_105_I',0.375783
'62_106_I',0.487105
'62_107_I',0.435370
'62_108_I',0.414405
'62_109_I',0.482340
'62_110_I',0.531277
'62_111_I',0.459085
'62_112_I',0.428934
'62_113_I',0.445603
'62_114_I',0.523013
'62_115_I',0.489502
'62_116_I',0.568108
'62_117_I',0.377468
'62_118_I',0.415912
'62_119_I',0.571688
'62_120_I',0.415049
'62_121_I',0.634420
'62_122_I',0.637255
'62_123_I',0.636613
'62_124_I',0.409891
'62_125_I',0.506149
'62_126_I',0.449549
'62_127_I',0.591570
'62_128_I',0.670204
'62_129_I',0.587122
'62_130_I',0.500826
'62_131_I',0.463434
'62_132_I',0.564902
'62_133_I',0.377641
'62_134_I',0.553425
'62_135_I',0.408114
'62_136_I',0.561358
'62_137_I',0.482859
'62_138_I',0.459705
'62_139_I',0.409487
'62_140_I',0.461800
'62_141_I',0.552453
'62_142_I',0.600521
'62_143_I',0.548004
'62_144_I',0.630901
'62_145_I',0.747511
'62_146_I',0.460159
'62_147_I',0.470963
'62_148_I',0.346418
'62_149_I',0.608297
'62_150_I',0.617897
'62_151_I',0.399906
'62_152_I',0.546978
'62_153_I',0.605446
'62_154_I',0.504823
'62_155_I',0.565321
'62_156_I',0.496383
'62_157_I',0.355464
'62_158_I',0.580267
'62_159_I',0.605957
'62_160_I',0.544943
'62_161_I',0.374023
'62_162_I',0.392268
'62_163_I',0.352189
'62_164_I',0.540010
'62_165_I',0.587565
'62_166_I',0.500823
'62_167_I',0.550011
'62_168_I',0.366711
'62_169_I',0.465515
'62_170_I',0.311331
'62_171_I',0.368465
'62_172_I',0.530772
'62_173_I',0.416144
'62_174_I',0.558177
'62_175_I',0.488108
'62_176_I',0.704766
'62_177_I',0.437651
'62_178_I',0.284523
'62_179_I',0.418539
'62_180_I',0.322459
'62_181_I',0.513187
'62_182_I',0.416316
'62_183_I',0.394982
'62_184_I',0.392829
'62_185_I',0.475751
'62_186_I',0.352888
'62_187_I',0.472200
'62_188_I',0.495356
'62_189_I',0.352834
'62_190_I',0.290637
'62_191_I',0.328084
'62_192_I',0.446477
'62_193_I',0.380745
'62_194_I',0.430483
'62_195_I',0.539696
'62_196_I',0.382372
'62_197_I',0.274206
'62_198_I',0.456615
'62_199_I',0.351731
'62_200_I',0.429513
'62_201_I',0.444512
'62_202_I',0.237568
'62_203_I',0.467198
'62_204_I',0.414991
'62_205_I',0.259524
'62_206_I',0.345750
'62_207_I',0.336371
'62_208_I',0.308344
'62_209_I',0.388399
'62_210_I',0.440158
'62_211_I',0.292325
'62_212_I',0.419813
'62_213_I',0.380634
'62_214_I',0.300093
'62_215_I',0.289491
'62_216_I',0.151588
'62_217_I',0.111701
'62_218_I',0.273176
'62_219_I',0.165940
'62_220_I',0.242393
'62_221_I',0.187678
'62_222_I',0.057049
'62_223_I',0.266350
'62_224_I',0.183853
'62_225_I',0.227982
'62_226_I',0.125274
'62_227_I',0.175698
'62_228_I',0.359781
'62_229_I',0.211133
'62_230_I',0.247742
'62_231_I',0.060176
'62_232_I',0.420619
'62_233_I',0.360483
'62_234_I',0.306886
'62_235_I',0.247796
'62_236_I',0.160787
'62_237_I',0.197811
'62_238_I',0.252714
'62_239_I',0.079343
'62_240_I',0.092017
'62_241_I',-0.036198
'62_242_I',0.047763
'62_243_I',0.285286
'62_244_I',0.079926
'62_245_I',0.075744
'62_246_I',0.133469
'62_247_I',-0.065382
'62_248_I',0.184514
'62_249_I',0.210738
'62_250_I',0.115937
'62_251_I',0.237442
'62_252_I',-0.066288
'62_253_I',0.244846
'62_254_I',-0.018529
'62_255_I',-0.079384
'62_256_I',0.018925
'62_257_I',0.223914
'62_258_I',0.028814
'62_259_I',-0.068461
'62_260_I',-0.110659
'62_261_I',0.002357
'62_262_I',-0.192595
'62_263_I',-0.129087
'62_264_I',0.149270
'62_265_I',0.121322
'62_266_I',-0.029813
'62_267_I',-0.069502
'62_268_I',-0.023046
'62_269_I',0.199946
'62_270_I',-0.000308
'62_271_I',0.044222
'62_272_I',-0.072937
'62_273_I',-0.052533
'62_274_I',0.000170
'62_275_I',-0.057851
'62_276_I',-0.266103
'62_277_I',0.045795
'62_278_I',-0.149654
'62_279_I',0.117122
'62_280_I',-0.031181
'62_281_I',-0.098610
'62_282_I',-0.067601
'62_283_I',-0.128194
'62_284_I',-0.171781
'62_285_I',-0.108154
'62_286_I',-0.046173
'62_287_I',-0.186864
'62_288_I',-0.208353
'62_289_I',-0.187376
'62_290_I',-0.062303
'62_291_I',-0.017903
'62_292_I',-0.132587
'62_293_I',-0.116263
'62_294_I',-0.242946
'62_295_I',-0.097857
'62_296_I',-0.135888
'62_297_I',-0.267577
'62_298_I',-0.380806
'62_299_I',-0.329541
'62_300_I',-0.279820
'62_301_I',-0.102092
'62_302_I',-0.068354
'62_303_I',-0.272914
'62_304_I',-0.275044
'62_305_I',-0.213347
'62_306_I',-0.243517
'62_307_I',-0.156826
'62_308_I',-0.307390
'62_309_I',-0.165273
'62_310_I',-0.289188
'62_311_I',-0.184909
'62_312_I',-0.302413
'62_313_I',-0.341581
'62_314_I',-0.093963
'62_315_I',-0.183554
'62_316_I',-0.474123
'62_317_I',-0.344394
'62_318_I',-0.183981
'62_319_I',-0.428852
'62_320_I',-0.236787
'62_321_I',-0.251774
'62_322_I',-0.392973
'62_323_I',-0.328472
'62_324_I',-0.541078
'62_325_I',-0.159472
'62_326_I',-0.371815
'62_327_I',-0.264867
'62_328_I',-0.288157
'62_329_I',-0.217996
'62_330_I',-0.401307
'62_331_I',-0.341736
'62_332_I',-0.310298
'62_333_I',-0.282992
'62_334_I',-0.258796
'62_335_I',-0.425902
'62_336_I',-0.448464
'62_337_I',-0.249854
'62_338_I',-0.593341
'62_339_I',-0.236343
'62_340_I',-0.427235
'62_341_I',-0.401060
'62_342_I',-0.472381
'62_343_I',-0.412452
'62_344_I',-0.283946
'62_345_I',-0.337342
'62_346_I',-0.368470
'62_347_I',-0.412101
'62_348_I',-0.568740
'62_349_I',-0.511723
'62_350_I',-0.464698
'62_351_I',-0.387618
'62_352_I',-0.429366
'62_353_I',-0.340865
'62_354_I',-0.394673
'62_355_I',-0.439359
'62_356_I',-0.219913
'62_357_I',-0.409497
'62_358_I',-0.495881
'62_359_I',-0.269192
'62_360_I',-0.337585
'62_361_I',-0.278389
'62_362_I',-0.473398
'62_363_I',-0.366915
'62_364_I',-0.612005
'62_365_I',-0.390427
'62_366_I',-0.486642
'62_367_I',-0.608349
'62_368_I',-0.371490
'62_369_I',-0.657602
'62_370_I',-0.669631
'62_371_I',-0.443815
'62_372_I',-0.424563
'62_373_I',-0.386211
'62_374_I',-0.410564
'62_375_I',-0.338522
'62_376_I',-0.417523
'62_377_I',-0.502066
'62_378_I',-0.497417
'62_379_I',-0.519427
'62_380_I',-0.462737
'62_381_I',-0.603029
'62_382_I',-0.460141
'62_383_I',-0.503743
'62_384_I',-0.468337
'62_385_I',-0.468755
'62_386_I',-0.742511
'62_387_I',-0.588000
'62_388_I',-0.509248
'62_389_I',-0.504377
'62_390_I',-0.473263
'62_391_I',-0.469268
'62_392_I',-0.348110
'62_393_I',-0.468647
'62_394_I',-0.531283
'62_395_I',-0.659910
'62_396_I',-0.636802
'62_397_I',-0.446268
'62_398_I',-0.393575
'62_399_I',-0.345215
'62_400_I',-0.581802
'62_401_I',-0.528988
'62_402_I',-0.473887
'62_403_I',-0.292828
'62_404_I',-0.485458
'62_405_I',-0.341124
'62_406_I',-0.478488
'62_407_I',-0.379325
'62_408_I',-0.391085
'62_409_I',-0.476158
'62_410_I',-0.593758
'62_411_I',-0.517512
'62_412_I',-0.340512
'62_413_I',-0.400377
'62_414_I',-0.530199
'62_415_I',-0.519669
'62_416_I',-0.657061
'62_417_I',-0.338006
'62_418_I',-0.392231
'62_419_I',-0.492874
'62_420_I',-0.457414
'62_421_I',-0.692707
'62_422_I',-0.522417
'62_423_I',-0.338358
'62_424_I',-0.371638
'62_425_I',-0.434646
'62_426_I',-0.467045
'62_427_I',-0.383723
'62_428_I',-0.489226
'62_429_I',-0.625215
'62_430_I',-0.456959
'62_431_I',-0.413555
'62_432_I',-0.339063
'62_433_I',-0.592849
'62_434_I',-0.458356
'62_435_I',-0.450867
'62_436_I',-0.550670
'62_437_I',-0.388923
'62_438_I',-0.360037
'62_439_I',-0.460864
'62_440_I',-0.223245
'62_441_I',-0.457589
'62_442_I',-0.467160
'62_443_I',-0.466836
'62_444_I',-0.497537
'62_445_I',-0.468548
'62_446_I',-0.552655
'62_447_I',-0.424941
'62_448_I',-0.396524
'62_449_I',-0.626978
'62_450_I',-0.405262
'62_451_I',-0.387167
'62_452_I',-0.336179
'62_453_I',-0.263377
'62_454_I',-0.294852
'62_455_I',-0.438117
'62_456_I',-0.445762
'62_457_I',-0.310157
'62_458_I',-0.418770
'62_459_I',-0.482730
'62_460_I',-0.118341
'62_461_I',-0.382608
'62_462_I',-0.409919
'62_463_I',-0.562160
'62_464_I',-0.253439
'62_465_I',-0.432956
'62_466_I',-0.326837
'62_467_I',-0.228326
'62_468_I',-0.417858
'62_469_I',-0.308080
'62_470_I',-0.159001
'62_471_I',-0.552362
'62_472_I',-0.383002
'62_473_I',-0.387627
'62_474_I',-0.311041
'62_475_I',-0.292267
'62_476_I',-0.388710
'62_477_I',-0.343077
'62_478_I',-0.349978
'62_479_I',-0.302712
'62_480_I',-0.240750
'62_481_I',-0.166417
'62_482_I',-0.146805
'62_483_I',-0.181804
'62_484_I',-0.329359
'62_485_I',-0.237050
'62_486_I',0.005987
'62_487_I',-0.124685
'62_488_I',-0.264849
'62_489_I',-0.057224
'62_490_I',-0.248833
'62_491_I',-0.271434
'62_492_I',-0.059560
'62_493_I',-0.324609
'62_494_I',-0.379505
'62_495_I',-0.088455
'62_496_I',-0.174245
'62_497_I',-0.158682
'62_498_I',-0.201942
'62_499_I',-0.184006
'62_500_I',-0.200301
'62_501_I',-0.211402
'62_502_I',-0.181285
'62_503_I',-0.178709
'62_504_I',-0.214473
'62_505_I',-0.180364
'62_506_I',-0.370337
'62_507_I',-0.045794
'62_508_I',-0.069414
'62_509_I',-0.111096
'62_510_I',-0.073023
'62_511_I',-0.063535
'62_512_I',-0.157417
'62_513_I',-0.132387
'62_514_I',-0.020398
'62_515_I',-0.046569
'62_516_I',0.142932
'62_517_I',0.106489
'62_518_I',0.043765
'62_519_I',-0.119766
'62_520_I',-0.094099
'62_521_I',-0.131894
'62_522_I',0.002246
'62_523_I',-0.293862
'62_524_I',-0.059663
'62_525_I',-0.038505
'62_526_I',-0.154294
'62_527_I',0.083878
'62_528_I',-0.103842
'62_529_I',0.042814
'62_530_I',0.300382
'62_531_I',-0.133135
'62_532_I',0.019068
'62_533_I',-0.000870
'62_534_I',-0.014374
'62_535_I',0.127789
'62_536_I',0.168330
'62_537_I',0.140786
'62_538_I',-0.002796
'62_539_I',0.318828
'62_540_I',-0.095685
'62_541_I',-0.016040
'62_542_I',0.110067
'62_543_I',0.107891
'62_544_I',0.153600
'62_545_I',0.268638
'62_546_I',0.104452
'62_547_I',0.133607
'62_548_I',0.068561
'62_549_I',0.192607
'62_550_I',0.107668
'62_551_I',0.113332
'62_552_I',0.205287
'62_553_I',0.260111
'62_554_I',-0.058535
'62_555_I',0.203988
'62_556_I',0.146500
'62_557_I',0.273868
'62_558_I',0.159654
'62_559_I',0.320305
'62_560_I',0.128065
'62_561_I',-0.021848
'62_562_I',0.311795
'62_563_I',0.127701
'62_564_I',0.059421
'62_565_I',0.224411
'62_566_I',0.204215
'62_567_I',0.315739
'62_568_I',0.327931
'62_569_I',0.253480
'62_570_I',0.160630
'62_571_I',0.282963
'62_572_I',0.275910
'62_573_I',0.321368
'62_574_I',0.182041
'62_575_I',0.234492
'62_576_I',0.330437
'62_577_I',0.409161
'62_578_I',0.385909
'62_579_I',0.302370
'62_580_I',0.250231
'62_581_I',0.344115
'62_582_I',0.199314
'62_583_I',0.231429
'62_584_I',0.468737
'62_585_I',0.362549
'62_586_I',0.292133
'62_587_I',0.414293
'62_588_I',0.464523
'62_589_I',0.295760
'62_590_I',0.301832
'62_591_I',0.293609
'62_592_I',0.449510
'62_593_I',0.454681
'62_594_I',0.500065
'62_595_I',0.466434
'62_596_I',0.206397
'62_597_I',0.401709
'62_598_I',0.271714
'62_599_I',0.330148
'62_600_I',0.402331
'62_601_I',0.472605
'62_602_I',0.303686
'62_603_I',0.163964
'62_604_I',0.418098
'62_605_I',0.667954
'62_606_I',0.386807
'62_607_I',0.415220
'62_608_I',0.592122
'62_609_I',0.476253
'62_610_I',0.442171
'62_611_I',0.467896
'62_612_I',0.451848
'62_613_I',0.315927
'62_614_I',0.298775
'62_615_I',0.624558
'62_616_I',0.457157
'62_617_I',0.451609
'62_618_I',0.435345
'62_619_I',0.525179
'62_620_I',0.703582
'62_621_I',0.504685
'62_622_I',0.395993
'62_623_I',0.443910
'62_624_I',0.566732
'62_625_I',0.403669
'62_626_I',0.549425
'62_627_I',0.234311
'62_628_I',0.445515
'62_629_I',0.533369
'62_630_I',0.599552
'62_631_I',0.392609
'62_632_I',0.326030
'62_633_I',0.452014
'62_634_I',0.367260
'62_635_I',0.466543
'62_636_I',0.482358
'62_637_I',0.352617
'62_638_I',0.566414
'62_639_I',0.471618
'62_640_I',0.596685
'62_641_I',0.305379
'62_642_I',0.389311
'62_643_I',0.543788
'62_644_I',0.413230
'62_645_I',0.477638
'62_646_I',0.495041
'62_647_I',0.511606
'62_648_I',0.428762
'62_649_I',0.512115
'62_650_I',0.419529
'62_651_I',0.565737
'62_652_I',0.487280
'62_653_I',0.514652
'62_654_I',0.756453
'62_655_I',0.388992
'62_656_I',0.638731
'62_657_I',0.234037
'62_658_I',0.292162
'62_659_I',0.375892
'62_660_I',0.382089
'62_661_I',0.520026
'62_662_I',0.528383
'62_663_I',0.473588
'62_664_I',0.483683
'62_665_I',0.550977
'62_666_I',0.580981
'62_667_I',0.364392
'62_668_I',0.460174
'62_669_I',0.488650
'62_670_I',0.543316
'62_671_I',0.416623
'62_672_I',0.484002
'62_673_I',0.494886
'62_674_I',0.420335
'62_675_I',0.416775
'62_676_I',0.498235
'62_677_I',0.474011
'62_678_I',0.535709
'62_679_I',0.378881
'62_680_I',0.447616
'62_681_I',0.458171
'62_682_I',0.560819
'62_683_I',0.383662
'62_684_I',0.499372
'62_685_I',0.499318
'62_686_I',0.636750
'62_687_I',0.369402
'62_688_I',0.402322
'62_689_I',0.372177
'62_690_I',0.296735
'62_691_I',0.637916
'62_692_I',0.334966
'62_693_I',0.375089
'62_694_I',0.585834
'62_695_I',0.276420
'62_696_I',0.524775
'62_697_I',0.305183
'62_698_I',0.568436
'62_699_I',0.223997
'62_700_I',0.262794
'62_701_I',0.380741
'62_702_I',0.529447
'62_703_I',0.426138
'62_704_I',0.392570
'62_705_I',0.557594
'62_706_I',0.635300
'62_707_I',0.483729
'62_708_I',0.350886
'62_709_I',0.367966
'62_710_I',0.277487
'62_711_I',0.412906
'62_712_I',0.236300
'62_713_I',0.450824
'62_714_I',0.592517
'62_715_I',0.459985
'62_716_I',0.337522
'62_717_I',0.433287
'62_718_I',0.538748
'62_719_I',0.529793
'62_720_I',0.268362
'62_721_I',0.415710
'62_722_I',0.344761
'62_723_I',0.437069
'62_724_I',0.390560
'62_725_I',0.110964
'62_726_I',0.308824
'62_727_I',0.359121
'62_728_I',0.191419
'62_729_I',0.388502
'62_730_I',0.173494
'62_731_I',0.241502
'62_732_I',0.450881
'62_733_I',0.223731
'62_734_I',0.364820
'62_735_I',0.127337
'62_736_I',0.506053
'62_737_I',0.262652
'62_738_I',0.297782
'62_739_I',0.301256
'62_740_I',0.339171
'62_741_I',0.121519
'62_742_I',0.267886
'62_743_I',0.197488
'62_744_I',0.089317
'62_745_I',0.351855
'62_746_I',0.212760
'62_747_I',0.267029
'62_748_I',0.255526
'62_749_I',0.198787
'62_750_I',0.424473
'62_751_I',0.216909
'62_752_I',0.060474
'62_753_I',0.170834
'62_754_I',0.255418
'62_755_I',0.253248
'62_756_I',0.085725
'62_757_I',0.281939
'62_758_I',0.007164
'62_759_I',0.292299
'62_760_I',0.040360
'62_761_I',0.144054
'62_762_I',0.267496
'62_763_I',0.167338
'62_764_I',0.231362
'62_765_I',0.205853
'62_766_I',0.266887
'62_767_I',0.238735
'62_768_I',0.081375
'62_769_I',0.184261
'62_770_I',-0.037489
'62_771_I',0.103559
'62_772_I',0.185366
'62_773_I',0.111055
'62_774_I',0.136473
'62_775_I',0.064608
'62_776_I',0.192956
'62_777_I',0.066110
'62_778_I',0.021698
'62_779_I',0.150977
'62_780_I',-0.084117
'62_781_I',0.100567
'62_782_I',-0.059727
'62_783_I',0.166366
'62_784_I',0.006517
'62_785_I',0.040160
'62_786_I',0.061956
'62_787_I',-0.178235
'62_788_I',-0.056292
'62_789_I',0.107152
'62_790_I',0.083605
'62_791_I',0.019163
'62_792_I',-0.150054
'62_793_I',0.037478
'62_794_I',0.044305
'62_795_I',-0.028291
'62_796_I',0.083371
'62_797_I',-0.113238
'62_798_I',-0.101822
'62_799_I',-0.305232
'62_800_I',0.029286
'62_801_I',-0.037228
'62_802_I',-0.242704
'62_803_I',-0.256279
'62_804_I',-0.173567
'62_805_I',-0.012812
'62_806_I',-0.128073
'62_807_I',-0.184362
'62_808_I',-0.210326
'62_809_I',-0.220622
'62_810_I',-0.314697
'62_811_I',-0.247851
'62_812_I',-0.239933
'62_813_I',-0.070358
'62_814_I',-0.160917
'62_815_I',-0.232608
'62_816_I',0.075240
'62_817_I',-0.227783
'62_818_I',-0.050321
'62_819_I',-0.010535
'62_820_I',-0.335231
'62_821_I',-0.176403
'62_822_I',-0.241090
'62_823_I',-0.254740
'62_824_I',-0.144793
'62_825_I',-0.268073
'62_826_I',-0.260808
'62_827_I',-0.233418
'62_828_I',-0.259310
'62_829_I',-0.344660
'62_830_I',-0.153013
'62_831_I',-0.133017
'62_832_I',-0.208742
'62_833_I',-0.285958
'62_834_I',-0.323987
'62_835_I',-0.328955
'62_836_I',-0.027945
'62_837_I',-0.174952
'62_838_I',-0.357761
'62_839_I',-0.262255
'62_840_I',-0.319914
'62_841_I',-0.230176
'62_842_I',-0.239060
'62_843_I',-0.189861
'62_844_I',-0.388048
'62_845_I',-0.297245
'62_846_I',-0.487256
'62_847_I',-0.442773
'62_848_I',-0.233222
'62_849_I',-0.421248
'62_850_I',-0.414771
'62_851_I',-0.335962
'62_852_I',-0.270063
'62_853_I',-0.449980
'62_854_I',-0.696286
'62_855_I',-0.439486
'62_856_I',-0.236110
'62_857_I',-0.326517
'62_858_I',-0.232549
'62_859_I',-0.482172
'62_860_I',-0.536932
'62_861_I',-0.330686
'62_862_I',-0.356833
'62_863_I',-0.354121
'62_864_I',-0.295162
'62_865_I',-0.350024
'62_866_I',-0.355305
'62_867_I',-0.327984
'62_868_I',-0.352804
'62_869_I',-0.320805
'62_870_I',-0.309143
'62_871_I',-0.260213
'62_872_I',-0.481630
'62_873_I',-0.371923
'62_874_I',-0.460221
'62_875_I',-0.509693
'62_876_I',-0.498380
'62_877_I',-0.382957
'62_878_I',-0.393592
'62_879_I',-0.398279
'62_880_I',-0.463733
'62_881_I',-0.443598
'62_882_I',-0.364878
'62_883_I',-0.598244
'62_884_I',-0.449427
'62_885_I',-0.445418
'62_886_I',-0.381541
'62_887_I',-0.594289
'62_888_I',-0.312078
'62_889_I',-0.442490
'62_890_I',-0.439390
'62_891_I',-0.508315
'62_892_I',-0.416436
'62_893_I',-0.467438
'62_894_I',-0.353263
'62_895_I',-0.620171
'62_896_I',-0.460259
'62_897_I',-0.438687
'62_898_I',-0.499831
'62_899_I',-0.523248
'62_900_I',-0.520596
'62_901_I',-0.468286
'62_902_I',-0.668126
'62_903_I',-0.391939
'62_904_I',-0.537695
'62_905_I',-0.478073
'62_906_I',-0.455245
'62_907_I',-0.545567
'62_908_I',-0.507051
'62_909_I',-0.698362
'62_910_I',-0.422446
'62_911_I',-0.388401
'62_912_I',-0.667186
'62_913_I',-0.538344
'62_914_I',-0.621219
'62_915_I',-0.516472
'62_916_I',-0.434229
'62_917_I',-0.400686
'62_918_I',-0.387484
'62_919_I',-0.368796
'62_920_I',-0.522202
'62_921_I',-0.614696
'62_922_I',-0.511427
'62_923_I',-0.436537
'62_924_I',-0.622415
'62_925_I',-0.333430
'62_926_I',-0.409337
'62_927_I',-0.519394
'62_928_I',-0.569366
'62_929_I',-0.564660
'62_930_I',-0.489726
'62_931_I',-0.519415
'62_932_I',-0.400681
'62_933_I',-0.529215
'62_934_I',-0.443484
'62_935_I',-0.495972
'62_936_I',-0.465087
'62_937_I',-0.513965
'62_938_I',-0.419023
'62_939_I',-0.416306
'62_940_I',-0.441263
'62_941_I',-0.425130
'62_942_I',-0.578875
'62_943_I',-0.450602
'62_944_I',-0.356425
'62_945_I',-0.430556
'62_946_I',-0.581050
'62_947_I',-0.481169
'62_948_I',-0.436841
'62_949_I',-0.548157
'62_950_I',-0.606255
'62_951_I',-0.499982
'62_952_I',-0.540333
'62_953_I',-0.465490
'62_954_I',-0.620946
'62_955_I',-0.403014
'62_956_I',-0.520559
'62_957_I',-0.355071
'62_958_I',-0.479820
'62_959_I',-0.452088
'62_960_I',-0.464208
'62_961_I',-0.513012
'62_962_I',-0.194196
'62_963_I',-0.488176
'62_964_I',-0.333340
'62_965_I',-0.542095
'62_966_I',-0.392498
'62_967_I',-0.378742
'62_968_I',-0.425903
'62_969_I',-0.477383
'62_970_I',-0.443351
'62_971_I',-0.454025
'62_972_I',-0.170112
'62_973_I',-0.409134
'62_974_I',-0.350887
'62_975_I',-0.221658
'62_976_I',-0.483839
'62_977_I',-0.388772
'62_978_I',-0.415732
'62_979_I',-0.393646
'62_980_I',-0.399098
'62_981_I',-0.450495
'62_982_I',-0.353823
'62_983_I',-0.475630
'62_984_I',-0.266430
'62_985_I',-0.298885
'62_986_I',-0.406410
'62_987_I',-0.397358
'62_988_I',-0.321055
'62_989_I',-0.424156
'62_990_I',-0.158751
'62_991_I',-0.299755
'62_992_I',-0.291772
'62_993_I',-0.258458
'62_994_I',-0.380006
'62_995_I',-0.208570
'62_996_I',-0.301384
'62_997_I',-0.213144
'62_998_I',-0.323231
'62_999_I',-0.166942
'62_1000_I',-0.253728
'62_1001_I',-0.070761
'62_1002_I',-0.321073
'62_1003_I',-0.258734
'62_1004_I',-0.377374
'62_1005_I',-0.322136
'62_1006_I',-0.202288
'62_1007_I',-0.146138
'62_1008_I',0.042554
'62_1009_I',-0.258450
'62_1010_I',-0.336913
'62_1011_I',-0.163029
'62_1012_I',-0.345880
'62_1013_I',-0.171373
'62_1014_I',-0.272696
'62_1015_I',-0.195950
'62_1016_I',-0.102612
'62_1017_I',-0.217368
'62_1018_I',-0.107555
'62_1019_I',-0.108046
'62_1020_I',-0.376287
'62_1021_I',-0.274478
'62_1022_I',-0.334937
'62_1023_I',0.027004
'62_1024_I',-0.178097
'62_1025_I',0.016161
'62_1026_I',-0.319558
'62_1027_I',-0.207859
'62_1028_I',-0.064830
'62_1029_I',-0.121229
'62_1030_I',-0.080127
'62_1031_I',-0.253032
'62_1032_I',0.015809
'62_1033_I',-0.038372
'62_1034_I',-0.070097
'62_1035_I',-0.172991
'62_1036_I',-0.066205
'62_1037_I',-0.121875
'62_1038_I',-0.251903
'62_1039_I',-0.086012
'62_1040_I',-0.090747
'62_1041_I',0.037073
'62_1042_I',-0.286693
'62_1043_I',-0.033805
'62_1044_I',-0.166948
'62_1045_I',-0.013528
'62_1046_I',-0.002075
'62_1047_I',-0.042235
'62_1048_I',0.053137
'62_1049_I',-0.146207
'62_1050_I',0.095107
'62_1051_I',-0.080506
'62_1052_I',-0.159320
'62_1053_I',-0.025000
'62_1054_I',-0.201308
'62_1055_I',0.039593
'62_1056_I',-0.005784
'62_1057_I',0.149472
'62_1058_I',0.096955
'62_1059_I',-0.101183
'62_1060_I',-0.039873
'62_1061_I',0.101975
'62_1062_I',0.140552
'62_1063_I',0.184022
'62_1064_I',0.189141
'62_1065_I',0.064647
'62_1066_I',0.115764
'62_1067_I',0.215259
'62_1068_I',0.060930
'62_1069_I',0.135095
'62_1070_I',0.070283
'62_1071_I',0.053710
'62_1072_I',0.119461
'62_1073_I',0.051670
'62_1074_I',0.113118
'62_1075_I',0.028480
'62_1076_I',0.118724
'62_1077_I',0.188291
'62_1078_I',0.090283
'62_1079_I',0.155775
'62_1080_I',0.174445
'62_1081_I',0.211406
'62_1082_I',0.158412
'62_1083_I',0.285950
'62_1084_I',-0.027160
'62_1085_I',0.482249
'62_1086_I',0.106876
'62_1087_I',0.239815
'62_1088_I',0.111089
'62_1089_I',0.274792
'62_1090_I',0.243422
'62_1091_I',0.156063
'62_1092_I',0.333781
'62_1093_I',0.215382
'62_1094_I',0.291772
'62_1095_I',0.150573
'62_1096_I',0.244404
'62_1097_I',0.453002
'62_1098_I',0.354091
'62_1099_I',0.293652
'62_1100_I',0.223057
'62_1101_I',0.279719
'62_1102_I',0.297707
'62_1103_I',0.327815
'62_1104_I',0.180128
'62_1105_I',0.359495
'62_1106_I',0.188514
'62_1107_I',0.465362
'62_1108_I',0.229820
'62_1109_I',0.341335
'62_1110_I',0.416832
'62_1111_I',0.295680
'62_1112_I',0.359532
'62_1113_I',0.473498
'62_1114_I',0.390881
'62_1115_I',0.374409
'62_1116_I',0.174741
'62_1117_I',0.254163
'62_1118_I',0.456494
'62_1119_I',0.413013
'62_1120_I',0.432331
'62_1121_I',0.427838
'62_1122_I',0.497336
'62_1123_I',0.346231
'62_1124_I',0.388378
'62_1125_I',0.277363
'62_1126_I',0.256278
'62_1127_I',0.223500
'62_1128_I',0.303097
'62_1129_I',0.550552
'62_1130_I',0.243650
'62_1131_I',0.372140
'62_1132_I',0.276691
'62_1133_I',0.349363
'62_1134_I',0.429826
'62_1135_I',0.346183
'62_1136_I',0.528439
'62_1137_I',0.576089
'62_1138_I',0.200940
'62_1139_I',0.360648
'62_1140_I',0.437898
'62_1141_I',0.547570
'62_1142_I',0.392447
'62_1143_I',0.438728
'62_1144_I',0.327835
'62_1145_I',0.292954
'62_1146_I',0.593433
'62_1147_I',0.269085
'62_1148_I',0.686886
'62_1149_I',0.529007
'62_1150_I',0.526892
'62_1151_I',0.518779
'62_1152_I',0.438235
'62_1153_I',0.504918
'62_1154_I',0.448959
'62_1155_I',0.525228
'62_1156_I',0.468558
'62_1157_I',0.378830
'62_1158_I',0.388678
'62_1159_I',0.379111
'62_1160_I',0.576364
'62_1161_I',0.419195
'62_1162_I',0.291328
'62_1163_I',0.523751
'62_1164_I',0.636979
'62_1165_I',0.564227
'62_1166_I',0.427908
'62_1167_I',0.330811
'62_1168_I',0.477248
'62_1169_I',0.475865
'62_1170_I',0.395910
'62_1171_I',0.548906
'62_1172_I',0.679366
'62_1173_I',0.517763
'62_1174_I',0.512343
'62_1175_I',0.403263
'62_1176_I',0.637346
'62_1177_I',0.490638
'62_1178_I',0.440733
'62_1179_I',0.505405
'62_1180_I',0.546567
'62_1181_I',0.513556
'62_1182_I',0.620442
'62_1183_I',0.538346
'62_1184_I',0.471604
'62_1185_I',0.540097
'62_1186_I',0.549849
'62_1187_I',0.370084
'62_1188_I',0.614428
'62_1189_I',0.469090
'62_1190_I',0.471271
'62_1191_I',0.573492
'62_1192_I',0.572552
'62_1193_I',0.427162
'62_1194_I',0.576874
'62_1195_I',0.439807
'62_1196_I',0.677007
'62_1197_I',0.411357
'62_1198_I',0.517181
'62_1199_I',0.414017
'62_1200_I',0.713405
'62_1201_I',0.366199
'62_1202_I',0.541194
'62_1203_I',0.413973
'62_1204_I',0.450690
'62_1205_I',0.530022
'62_1206_I',0.605626
'62_1207_I',0.643937
'62_1208_I',0.326264
'62_1209_I',0.505026
'62_1210_I',0.622425
'62_1211_I',0.306101
'62_1212_I',0.504160
'62_1213_I',0.470535
'62_1214_I',0.510152
'62_1215_I',0.389355
'62_1216_I',0.320845
'62_1217_I',0.270852
'62_1218_I',0.557490
'62_1219_I',0.567880
'62_1220_I',0.485302
'62_1221_I',0.399113
'62_1222_I',0.287652
'62_1223_I',0.503656
'62_1224_I',0.334545
'62_1225_I',0.370731
'62_1226_I',0.380380
'62_1227_I',0.416395
'62_1228_I',0.357295
'62_1229_I',0.433533
'62_1230_I',0.364933
'62_1231_I',0.494118
'62_1232_I',0.523893
'62_1233_I',0.428387
'62_1234_I',0.460482
'62_1235_I',0.622632
'62_1236_I',0.290155
'62_1237_I',0.280579
'62_1238_I',0.469879
'62_1239_I',0.591430
'62_1240_I',0.367065
'62_1241_I',0.562082
'62_1242_I',0.395270
'62_1243_I',0.313711
'62_1244_I',0.278849
'62_1245_I',0.436925
'62_1246_I',0.278499
'62_1247_I',0.374082
'62_1248_I',0.520207
'62_1249_I',0.327038
'62_1250_I',0.484921
'62_1251_I',0.227819
'62_1252_I',0.291587
'62_1253_I',0.199918
'62_1254_I',0.343538
'62_1255_I',0.409805
'62_1256_I',0.334827
'62_1257_I',0.445477
'62_1258_I',0.243273
'62_1259_I',0.336098
'62_1260_I',0.256145
'62_1261_I',0.340344
'62_1262_I',0.349791
'62_1263_I',0.352855
'62_1264_I',0.182713
'62_1265_I',0.195913
'62_1266_I',0.209533
'62_1267_I',0.251108
'62_1268_I',0.278710
'62_1269_I',0.335757
'62_1270_I',0.175058
'62_1271_I',0.094648
'62_1272_I',0.465170
'62_1273_I',0.131260
'62_1274_I',0.322813
'62_1275_I',0.237049
'62_1276_I',0.253761
'62_1277_I',0.223150
'62_1278_I',0.179465
'62_1279_I',0.258959
'62_1280_I',0.163285
'62_1281_I',0.318326
'62_1282_I',0.253064
'62_1283_I',0.250675
'62_1284_I',0.134472
'62_1285_I',0.155992
'62_1286_I',0.055253
'62_1287_I',0.133134
'62_1288_I',0.059146
'62_1289_I',0.288455
'62_1290_I',0.156524
'62_1291_I',0.162821
'62_1292_I',0.117537
'62_1293_I',0.154070
'62_1294_I',0.375040
'62_1295_I',0.092761
'62_1296_I',0.051939
'62_1297_I',0.164138
'62_1298_I',-0.147231
'62_1299_I',0.105894
'62_1300_I',0.056471
'62_1301_I',-0.011459
'62_1302_I',0.132665
'62_1303_I',0.081394
'62_1304_I',-0.110150
'62_1305_I',-0.000477
'62_1306_I',-0.230576
'62_1307_I',0.081646
'62_1308_I',0.074709
'62_1309_I',-0.038896
'62_1310_I',0.088492
'62_1311_I',-0.099727
'62_1312_I',-0.074090
'62_1313_I',0.058317
'62_1314_I',-0.058236
'62_1315_I',-0.001603
'62_1316_I',-0.057672
'62_1317_I',-0.048369
'62_1318_I',-0.049966
'62_1319_I',-0.089885
'62_1320_I',0.005073
'62_1321_I',-0.093925
'62_1322_I',-0.035518
'62_1323_I',-0.115910
'62_1324_I',-0.202410
'62_1325_I',0.036326
'62_1326_I',-0.010893
'62_1327_I',0.162102
'62_1328_I',-0.177074
'62_1329_I',-0.099473
'62_1330_I',-0.097317
'62_1331_I',0.008593
'62_1332_I',-0.146919
'62_1333_I',-0.219163
'62_1334_I',0.012887
'62_1335_I',-0.145380
'62_1336_I',-0.031655
'62_1337_I',-0.049087
'62_1338_I',-0.134065
'62_1339_I',-0.154258
'62_1340_I',-0.181715
'62_1341_I',-0.149789
'62_1342_I',-0.067649
'62_1343_I',-0.239271
'62_1344_I',-0.154388
'62_1345_I',-0.282757
'62_1346_I',-0.275902
'62_1347_I',-0.185157
'62_1348_I',-0.383625
'62_1349_I',0.012927
'62_1350_I',-0.317927
'62_1351_I',-0.208093
'62_1352_I',-0.092697
'62_1353_I',-0.301214
'62_1354_I',-0.450568
'62_1355_I',-0.270135
'62_1356_I',-0.318433
'62_1357_I',-0.463866
'62_1358_I',-0.212983
'62_1359_I',-0.225973
'62_1360_I',-0.137624
'62_1361_I',-0.369077
'62_1362_I',-0.422010
'62_1363_I',-0.307833
'62_1364_I',-0.281022
'62_1365_I',-0.185040
'62_1366_I',-0.141066
'62_1367_I',-0.165583
'62_1368_I',-0.264243
'62_1369_I',-0.216773
'62_1370_I',-0.365556
'62_1371_I',-0.289407
'62_1372_I',-0.430072
'62_1373_I',-0.309327
'62_1374_I',-0.311338
'62_1375_I',-0.152551
'62_1376_I',-0.352177
'62_1377_I',-0.324743
'62_1378_I',-0.314472
'62_1379_I',-0.388023
'62_1380_I',-0.427114
'62_1381_I',-0.221258
'62_1382_I',-0.453455
'62_1383_I',-0.492328
'62_1384_I',-0.295632
'62_1385_I',-0.251948
'62_1386_I',-0.416889
'62_1387_I',-0.419318
'62_1388_I',-0.351370
'62_1389_I',-0.454267
'62_1390_I',-0.465456
'62_1391_I',-0.303073
'62_1392_I',-0.334011
'62_1393_I',-0.267244
'62_1394_I',-0.527198
'62_1395_I',-0.455707
'62_1396_I',-0.380807
'62_1397_I',-0.504892
'62_1398_I',-0.351508
'62_1399_I',-0.296502
'62_1400_I',-0.480528
'62_1401_I',-0.421501
'62_1402_I',-0.282905
'62_1403_I',-0.251586
'62_1404_I',-0.359918
'62_1405_I',-0.378077
'62_1406_I',-0.525654
'62_1407_I',-0.407157
'62_1408_I',-0.390130
'62_1409_I',-0.469520
'62_1410_I',-0.510568
'62_1411_I',-0.581762
'62_1412_I',-0.629884
'62_1413_I',-0.653312
'62_1414_I',-0.402927
'62_1415_I',-0.448383
'62_1416_I',-0.513750
'62_1417_I',-0.500664
'62_1418_I',-0.448555
'62_1419_I',-0.488074
'62_1420_I',-0.607622
'62_1421_I',-0.384148
'62_1422_I',-0.446849
'62_1423_I',-0.452417
'62_1424_I',-0.396928
'62_1425_I',-0.563658
'62_1426_I',-0.362460
'62_1427_I',-0.499308
'62_1428_I',-0.397846
'62_1429_I',-0.414594
'62_1430_I',-0.593182
'62_1431_I',-0.440205
'62_1432_I',-0.458991
'62_1433_I',-0.489640
'62_1434_I',-0.503092
'62_1435_I',-0.503157
'62_1436_I',-0.414141
'62_1437_I',-0.438390
'62_1438_I',-0.493834
'62_1439_I',-0.646706
'62_1440_I',-0.448627
'62_1441_I',-0.426198
'62_1442_I',-0.268936
'62_1443_I',-0.391780
'62_1444_I',-0.689516
'62_1445_I',-0.491959
'62_1446_I',-0.318797
'62_1447_I',-0.437641
'62_1448_I',-0.467120
'62_1449_I',-0.409881
'62_1450_I',-0.561989
'62_1451_I',-0.451719
'62_1452_I',-0.524280
'62_1453_I',-0.500829
'62_1454_I',-0.415584
'62_1455_I',-0.590593
'62_1456_I',-0.368544
'62_1457_I',-0.538973
'62_1458_I',-0.469905
'62_1459_I',-0.635230
'62_1460_I',-0.422334
'62_1461_I',-0.348735
'62_1462_I',-0.543846
'62_1463_I',-0.602331
'62_1464_I',-0.462368
'62_1465_I',-0.343472
'62_1466_I',-0.632656
'62_1467_I',-0.596949
'62_1468_I',-0.530316
'62_1469_I',-0.565441
'62_1470_I',-0.563565
'62_1471_I',-0.689631
'62_1472_I',-0.419617
'62_1473_I',-0.442886
'62_1474_I',-0.644810
'62_1475_I',-0.327305
'62_1476_I',-0.302948
'62_1477_I',-0.544112
'62_1478_I',-0.350265
'62_1479_I',-0.522052
'62_1480_I',-0.444406
'62_1481_I',-0.543793
'62_1482_I',-0.236426
'62_1483_I',-0.485021
'62_1484_I',-0.440278
'62_1485_I',-0.519156
'62_1486_I',-0.261606
'62_1487_I',-0.256387
'62_1488_I',-0.279204
'62_1489_I',-0.343837
'62_1490_I',-0.499083
'62_1491_I',-0.350879
'62_1492_I',-0.431366
'62_1493_I',-0.296358
'62_1494_I',-0.312884
'62_1495_I',-0.486216
'62_1496_I',-0.323262
'62_1497_I',-0.346537
'62_1498_I',-0.688733
'62_1499_I',-0.327861
'62_1500_I',-0.447655
'62_1501_I',-0.489541
'62_1502_I',-0.481668
'62_1503_I',-0.407215
'62_1504_I',-0.341977
'62_1505_I',-0.522766
'62_1506_I',-0.363417
'62_1507_I',-0.320853
'62_1508_I',-0.188421
'62_1509_I',-0.478291
'62_1510_I',-0.401550
'62_1511_I',-0.336337
'62_1512_I',-0.243626
'62_1513_I',-0.384601
'62_1514_I',-0.230076
'62_1515_I',-0.539388
'62_1516_I',-0.466649
'62_1517_I',-0.302064
'62_1518_I',-0.473576
'62_1519_I',-0.445459
'62_1520_I',-0.376262
'62_1521_I',-0.241766
'62_1522_I',-0.503886
'62_1523_I',-0.292595
'62_1524_I',-0.201620
'62_1525_I',-0.319658
'62_1526_I',-0.332252
'62_1527_I',-0.250354
'62_1528_I',-0.304864
'62_1529_I',-0.141684
'62_1530_I',-0.386916
'62_1531_I',-0.275940
'62_1532_I',-0.245170
'62_1533_I',-0.298509
'62_1534_I',-0.542680
'62_1535_I',-0.266493
'62_1536_I',-0.155201
'62_1537_I',-0.162188
'62_1538_I',-0.199268
'62_1539_I',-0.339245
'62_1540_I',-0.184608
'62_1541_I',-0.276132
'62_1542_I',-0.178057
'62_1543_I',-0.195841
'62_1544_I',-0.300187
'62_1545_I',-0.286323
'62_1546_I',-0.156075
'62_1547_I',-0.208162
'62_1548_I',-0.264525
'62_1549_I',-0.267201
'62_1550_I',-0.199697
'62_1551_I',-0.006875
'62_1552_I',-0.210641
'62_1553_I',-0.153761
'62_1554_I',-0.136499
'62_1555_I',-0.254049
'62_1556_I',-0.311493
'62_1557_I',-0.232118
'62_1558_I',-0.098971
'62_1559_I',-0.109154
'62_1560_I',-0.041837
'62_1561_I',-0.096578
'62_1562_I',-0.111367
'62_1563_I',-0.154959
'62_1564_I',-0.000229
'62_1565_I',-0.174727
'62_1566_I',-0.187957
'62_1567_I',-0.014308
'62_1568_I',-0.198416
'62_1569_I',0.182302
'62_1570_I',-0.045247
'62_1571_I',-0.012517
'62_1572_I',-0.122204
'62_1573_I',-0.066937
'62_1574_I',-0.072130
'62_1575_I',-0.077677
'62_1576_I',0.045767
'62_1577_I',-0.056521
'62_1578_I',0.096155
'62_1579_I',0.266692
'62_1580_I',-0.023211
'62_1581_I',0.027543
'62_1582_I',0.056225
'62_1583_I',0.205391
'62_1584_I',0.021936
'62_1585_I',-0.046745
'62_1586_I',-0.084526
'62_1587_I',0.042254
'62_1588_I',0.009152
'62_1589_I',0.260921
'62_1590_I',0.242828
'62_1591_I',-0.031683
'62_1592_I',0.006580
'62_1593_I',0.090924
'62_1594_I',0.229149
'62_1595_I',0.100994
'62_1596_I',0.036421
'62_1597_I',0.101096
'62_1598_I',0.049958
'62_1599_I',0.178861
'62_1600_I',0.053500
'62_1601_I',0.079133
'62_1602_I',0.252123
'62_1603_I',0.064828
'62_1604_I',0.002766
'62_1605_I',0.162571
'62_1606_I',0.122696
'62_1607_I',0.215534
'62_1608_I',0.201765
'62_1609_I',0.172427
'62_1610_I',0.175090
'62_1611_I',0.113159
'62_1612_I',0.200603
'62_1613_I',0.285893
'62_1614_I',0.105888
'62_1615_I',0.208132
'62_1616_I',0.317920
'62_1617_I',0.270003
'62_1618_I',0.355755
'62_1619_I',0.173309
'62_1620_I',0.052329
'62_1621_I',0.260721
'62_1622_I',0.282127
'62_1623_I',0.387892
'62_1624_I',0.375009
'62_1625_I',0.314976
'62_1626_I',0.342911
'62_1627_I',0.252223
'62_1628_I',0.154487
'62_1629_I',0.293125
'62_1630_I',0.384524
'62_1631_I',0.356776
'62_1632_I',0.379353
'62_1633_I',0.257986
'62_1634_I',0.278954
'62_1635_I',0.358555
'62_1636_I',0.260220
'62_1637_I',0.267914
'62_1638_I',0.353852
'62_1639_I',0.404667
'62_1640_I',0.313100
'62_1641_I',0.221162
'62_1642_I',0.268280
'62_1643_I',0.366559
'62_1644_I',0.369626
'62_1645_I',0.378830
'62_1646_I',0.411018
'62_1647_I',0.363599
'62_1648_I',0.393603
'62_1649_I',0.366621
'62_1650_I',0.489970
'62_1651_I',0.522251
'62_1652_I',0.263982
'62_1653_I',0.361169
'62_1654_I',0.393723
'62_1655_I',0.367460
'62_1656_I',0.577088
'62_1657_I',0.423779
'62_1658_I',0.324377
'62_1659_I',0.468032
'62_1660_I',0.438900
'62_1661_I',0.445577
'62_1662_I',0.599243
'62_1663_I',0.456771
'62_1664_I',0.394503
'62_1665_I',0.232458
'62_1666_I',0.414502
'62_1667_I',0.564633
'62_1668_I',0.427851
'62_1669_I',0.215833
'62_1670_I',0.392809
'62_1671_I',0.544658
'62_1672_I',0.502652
'62_1673_I',0.366699
'62_1674_I',0.396711
'62_1675_I',0.414657
'62_1676_I',0.391880
'62_1677_I',0.257541
'62_1678_I',0.539160
'62_1679_I',0.590733
'62_1680_I',0.315342
'62_1681_I',0.593666
'62_1682_I',0.461005
'62_1683_I',0.595780
'62_1684_I',0.478953
'62_1685_I',0.490537
'62_1686_I',0.515982
'62_1687_I',0.401420
'62_1688_I',0.601514
'62_1689_I',0.371459
'62_1690_I',0.444872
'62_1691_I',0.538918
'62_1692_I',0.436916
'62_1693_I',0.566862
'62_1694_I',0.627900
'62_1695_I',0.592702
'62_1696_I',0.298900
'62_1697_I',0.506090
'62_1698_I',0.597298
'62_1699_I',0.363608
'62_1700_I',0.568427
'62_1701_I',0.563524
'62_1702_I',0.376210
'62_1703_I',0.581412
'62_1704_I',0.525758
'62_1705_I',0.563955
'62_1706_I',0.402642
'62_1707_I',0.514573
'62_1708_I',0.329287
'62_1709_I',0.272219
'62_1710_I',0.514073
'62_1711_I',0.610051
'62_1712_I',0.525215
'62_1713_I',0.493435
'62_1714_I',0.480814
'62_1715_I',0.405027
'62_1716_I',0.476743
'62_1717_I',0.540671
'62_1718_I',0.454483
'62_1719_I',0.572496
'62_1720_I',0.516396
'62_1721_I',0.527786
'62_1722_I',0.584174
'62_1723_I',0.441781
'62_1724_I',0.559473
'62_1725_I',0.453896
'62_1726_I',0.525433
'62_1727_I',0.425772
'62_1728_I',0.398077
'62_1729_I',0.497062
'62_1730_I',0.298014
'62_1731_I',0.455497
'62_1732_I',0.323006
'62_1733_I',0.560018
'62_1734_I',0.585489
'62_1735_I',0.392397
'62_1736_I',0.519869
'62_1737_I',0.565129
'62_1738_I',0.563573
'62_1739_I',0.492814
'62_1740_I',0.542775
'62_1741_I',0.402320
'62_1742_I',0.473407
'62_1743_I',0.416160
'62_1744_I',0.387202
'62_1745_I',0.461831
'62_1746_I',0.490557
'62_1747_I',0.569668
'62_1748_I',0.477282
'62_1749_I',0.512345
'62_1750_I',0.510801
'62_1751_I',0.711484
'62_1752_I',0.258922
'62_1753_I',0.368264
'62_1754_I',0.581533
'62_1755_I',0.395933
'62_1756_I',0.516661
'62_1757_I',0.447967
'62_1758_I',0.632311
'62_1759_I',0.307250
'62_1760_I',0.537441
'62_1761_I',0.586865
'62_1762_I',0.307052
'62_1763_I',0.483309
'62_1764_I',0.304944
'62_1765_I',0.400924
'62_1766_I',0.368606
'62_1767_I',0.150290
'62_1768_I',0.429235
'62_1769_I',0.397335
'62_1770_I',0.527045
'62_1771_I',0.436333
'62_1772_I',0.600335
'62_1773_I',0.377926
'62_1774_I',0.352592
'62_1775_I',0.340581
'62_1776_I',0.310877
'62_1777_I',0.129831
'62_1778_I',0.324306
'62_1779_I',0.135210
'62_1780_I',0.382820
'62_1781_I',0.209184
'62_1782_I',0.239282
'62_1783_I',0.257253
'62_1784_I',0.299134
'62_1785_I',0.315701
'62_1786_I',0.418804
'62_1787_I',0.247902
'62_1788_I',0.348924
'62_1789_I',0.569207
'62_1790_I',0.329025
'62_1791_I',0.268369
'62_1792_I',0.203590
'62_1793_I',0.257119
'62_1794_I',0.182937
'62_1795_I',0.293394
'62_1796_I',0.271813
'62_1797_I',0.040131
'62_1798_I',0.249354
'62_1799_I',0.353645
'62_1800_I',0.200906
'62_1801_I',0.170279
'62_1802_I',0.092517
'62_1803_I',0.039173
'62_1804_I',0.302761
'62_1805_I',0.196100
'62_1806_I',0.286042
'62_1807_I',0.356534
'62_1808_I',0.290059
'62_1809_I',0.138201
'62_1810_I',0.201403
'62_1811_I',0.119889
'62_1812_I',0.104962
'62_1813_I',0.204472
'62_1814_I',0.081337
'62_1815_I',-0.061997
'62_1816_I',0.064432
'62_1817_I',0.116866
'62_1818_I',0.293981
'62_1819_I',0.087013
'62_1820_I',0.181546
'62_1821_I',0.107751
'62_1822_I',0.241433
'62_1823_I',0.228696
'62_1824_I',0.224781
'62_1825_I',-0.072073
'62_1826_I',0.116146
'62_1827_I',0.165501
'62_1828_I',0.121883
'62_1829_I',0.141498
'62_1830_I',0.077772
'62_1831_I',-0.008454
'62_1832_I',-0.109606
'62_1833_I',-0.010384
'62_1834_I',0.316047
'62_1835_I',-0.006274
'62_1836_I',-0.159598
'62_1837_I',0.103650
'62_1838_I',0.109971
'62_1839_I',0.147194
'62_1840_I',0.059593
'62_1841_I',0.091087
'62_1842_I',0.184580
'62_1843_I',-0.079958
'62_1844_I',-0.105764
'62_1845_I',-0.126804
'62_1846_I',-0.049886
'62_1847_I',0.114072
'62_1848_I',0.017580
'62_1849_I',0.007691
'62_1850_I',-0.229055
'62_1851_I',-0.122382
'62_1852_I',-0.242560
'62_1853_I',0.052207
'62_1854_I',0.087733
'62_1855_I',0.001222
'62_1856_I',-0.181306
'62_1857_I',0.059693
'62_1858_I',-0.119703
'62_1859_I',-0.221678
'62_1860_I',-0.202513
'62_1861_I',-0.154914
'62_1862_I',-0.112750
'62_1863_I',-0.139635
'62_1864_I',-0.270542
'62_1865_I',-0.013701
'62_1866_I',-0.155830
'62_1867_I',-0.217863
'62_1868_I',-0.041154
'62_1869_I',-0.276199
'62_1870_I',-0.326400
'62_1871_I',-0.041892
'62_1872_I',0.014394
'62_1873_I',-0.226535
'62_1874_I',-0.190477
'62_1875_I',-0.306074
'62_1876_I',-0.196359
'62_1877_I',-0.249951
'62_1878_I',-0.218037
'62_1879_I',-0.172313
'62_1880_I',-0.328437
'62_1881_I',-0.260156
'62_1882_I',-0.409673
'62_1883_I',-0.270082
'62_1884_I',-0.249181
'62_1885_I',-0.222160
'62_1886_I',-0.226286
'62_1887_I',-0.165001
'62_1888_I',-0.414473
'62_1889_I',-0.414210
'62_1890_I',-0.217725
'62_1891_I',-0.479517
'62_1892_I',-0.262251
'62_1893_I',-0.403531
'62_1894_I',-0.133100
'62_1895_I',-0.270175
'62_1896_I',-0.321932
'62_1897_I',-0.181998
'62_1898_I',-0.415820
'62_1899_I',-0.401487
'62_1900_I',-0.444913
'62_1901_I',-0.409847
'62_1902_I',-0.321762
'62_1903_I',-0.282961
'62_1904_I',-0.240650
'62_1905_I',-0.523652
'62_1906_I',-0.362705
'62_1907_I',-0.460625
'62_1908_I',-0.374577
'62_1909_I',-0.124822
'62_1910_I',-0.333190
'62_1911_I',-0.276517
'62_1912_I',-0.174429
'62_1913_I',-0.261744
'62_1914_I',-0.423200
'62_1915_I',-0.509866
'62_1916_I',-0.389117
'62_1917_I',-0.446638
'62_1918_I',-0.546029
'62_1919_I',-0.373138
'62_1920_I',-0.374238
'62_1921_I',-0.227455
'62_1922_I',-0.444025
'62_1923_I',-0.383260
'62_1924_I',-0.481186
'62_1925_I',-0.330627
'62_1926_I',-0.433652
'62_1927_I',-0.541636
'62_1928_I',-0.428850
'62_1929_I',-0.391516
'62_1930_I',-0.408045
'62_1931_I',-0.331924
'62_1932_I',-0.584199
'62_1933_I',-0.526485
'62_1934_I',-0.380986
'62_1935_I',-0.520182
'62_1936_I',-0.426235
'62_1937_I',-0.694820
'62_1938_I',-0.183749
'62_1939_I',-0.484749
'62_1940_I',-0.340749
'62_1941_I',-0.496137
'62_1942_I',-0.423214
'62_1943_I',-0.317662
'62_1944_I',-0.352377
'62_1945_I',-0.491440
'62_1946_I',-0.486490
'62_1947_I',-0.374511
'62_1948_I',-0.243378
'62_1949_I',-0.459241
'62_1950_I',-0.284461
'62_1951_I',-0.505939
'62_1952_I',-0.388163
'62_1953_I',-0.374736
'62_1954_I',-0.527272
'62_1955_I',-0.562338
'62_1956_I',-0.374376
'62_1957_I',-0.543285
'62_1958_I',-0.580710
'62_1959_I',-0.560746
'62_1960_I',-0.546916
'62_1961_I',-0.408628
'62_1962_I',-0.443650
'62_1963_I',-0.424382
'62_1964_I',-0.454533
'62_1965_I',-0.556707
'62_1966_I',-0.428194
'62_1967_I',-0.380170
'62_1968_I',-0.440404
'62_1969_I',-0.454257
'62_1970_I',-0.576225
'62_1971_I',-0.478564
'62_1972_I',-0.581925
'62_1973_I',-0.502387
'62_1974_I',-0.664023
'62_1975_I',-0.663193
'62_1976_I',-0.518912
'62_1977_I',-0.554449
'62_1978_I',-0.488654
'62_1979_I',-0.512466
'62_1980_I',-0.495555
'62_1981_I',-0.437227
'62_1982_I',-0.543858
'62_1983_I',-0.518847
'62_1984_I',-0.350702
'62_1985_I',-0.495126
'62_1986_I',-0.512516
'62_1987_I',-0.485433
'62_1988_I',-0.508839
'62_1989_I',-0.562609
'62_1990_I',-0.590334
'62_1991_I',-0.565683
'62_1992_I',-0.400787
'62_1993_I',-0.549739
'62_1994_I',-0.500841
'62_1995_I',-0.413806
'62_1996_I',-0.510181
'62_1997_I',-0.417399
'62_1998_I',-0.633139
'62_1999_I',-0.490568
'62_2000_I',-0.467615
'62_2001_I',-0.471312
'62_2002_I',-0.636971
'62_2003_I',-0.349354
'62_2004_I',-0.553051
'62_2005_I',-0.431933
'62_2006_I',-0.462426
'62_2007_I',-0.360572
'62_2008_I',-0.239848
'62_2009_I',-0.585223
'62_2010_I',-0.518602
'62_2011_I',-0.432260
'62_2012_I',-0.559100
'62_2013_I',-0.367677
'62_2014_I',-0.358826
'62_2015_I',-0.384423
'62_2016_I',-0.413851
'62_2017_I',-0.297618
'62_2018_I',-0.547169
'62_2019_I',-0.422035
'62_2020_I',-0.499337
'62_2021_I',-0.333299
'62_2022_I',-0.602399
'62_2023_I',-0.418588
'62_2024_I',-0.378910
'62_2025_I',-0.503780
'62_2026_I',-0.468188
'62_2027_I',-0.400511
'62_2028_I',-0.302962
'62_2029_I',-0.498124
'62_2030_I',-0.476992
'62_2031_I',-0.274843
'62_2032_I',-0.410898
'62_2033_I',-0.457498
'62_2034_I',-0.302966
'62_2035_I',-0.420691
'62_2036_I',-0.265112
'62_2037_I',-0.430157
'62_2038_I',-0.375624
'62_2039_I',-0.260995
'62_2040_I',-0.373896
'62_2041_I',-0.271392
'62_2042_I',-0.349230
'62_2043_I',-0.140135
'62_2044_I',-0.177007
'62_2045_I',-0.462227
'62_2046_I',-0.272679
'62_2047_I',-0.401984
'62_2048_I',-0.296587
'62_2049_I',-0.304250
'62_2050_I',-0.411931
'62_2051_I',-0.195805
'62_2052_I',-0.276541
'62_2053_I',-0.320516
'62_2054_I',-0.330993
'62_2055_I',-0.268297
'62_2056_I',-0.236536
'62_2057_I',-0.284839
'62_2058_I',-0.550569
'62_2059_I',-0.260564
'62_2060_I',-0.401301
'62_2061_I',-0.272961
'62_2062_I',-0.387299
'62_2063_I',-0.383283
'62_2064_I',-0.112879
'62_2065_I',-0.263123
'62_2066_I',-0.265471
'62_2067_I',-0.172211
'62_2068_I',-0.252149
'62_2069_I',0.000694
'62_2070_I',-0.231555
'62_2071_I',-0.162277
'62_2072_I',-0.096205
'62_2073_I',-0.027555
'62_2074_I',-0.256436
'62_2075_I',-0.218460
'62_2076_I',-0.043608
'62_2077_I',-0.084440
'62_2078_I',-0.052284
'62_2079_I',-0.291005
'62_2080_I',0.006355
'62_2081_I',-0.218876
'62_2082_I',-0.117775
'62_2083_I',-0.146076
'62_2084_I',-0.213333
'62_2085_I',-0.260952
'62_2086_I',-0.288279
'62_2087_I',-0.096172
'62_2088_I',-0.254771
'62_2089_I',-0.209770
'62_2090_I',-0.112328
'62_2091_I',-0.348529
'62_2092_I',-0.000861
'62_2093_I',-0.313848
'62_2094_I',-0.074686
'62_2095_I',-0.059527
'62_2096_I',-0.001294
'62_2097_I',-0.053332
'62_2098_I',0.158571
'62_2099_I',-0.015639
'62_2100_I',0.074046
'62_2101_I',-0.097702
'62_2102_I',-0.007317
'62_2103_I',0.141330
'62_2104_I',-0.031229
'62_2105_I',0.017733
'62_2106_I',0.102564
'62_2107_I',-0.063776
'62_2108_I',-0.199743
'62_2109_I',0.047935
'62_2110_I',0.127206
'62_2111_I',-0.100848
'62_2112_I',0.107271
'62_2113_I',0.113892
'62_2114_I',-0.175214
'62_2115_I',-0.035560
'62_2116_I',0.024410
'62_2117_I',0.051946
'62_2118_I',0.001500
'62_2119_I',0.002008
'62_2120_I',0.254739
'62_2121_I',0.082705
'62_2122_I',0.029814
'62_2123_I',0.101044
'62_2124_I',0.164698
'62_2125_I',0.121964
'62_2126_I',0.102024
'62_2127_I',0.063373
'62_2128_I',0.067921
'62_2129_I',0.080094
'62_2130_I',0.179477
'62_2131_I',0.051877
'62_2132_I',0.196301
'62_2133_I',0.303929
'62_2134_I',0.200833
'62_2135_I',0.136913
'62_2136_I',0.049643
'62_2137_I',0.342824
'62_2138_I',0.073544
'62_2139_I',0.280907
'62_2140_I',0.265379
'62_2141_I',0.183299
'62_2142_I',0.186097
'62_2143_I',0.034212
'62_2144_I',0.256147
'62_2145_I',0.290459
'62_2146_I',0.124851
'62_2147_I',0.223437
'62_2148_I',0.248031
'62_2149_I',0.307893
'62_2150_I',0.254971
'62_2151_I',0.097078
'62_2152_I',0.211798
'62_2153_I',0.292299
'62_2154_I',0.358995
'62_2155_I',0.218045
'62_2156_I',0.503501
'62_2157_I',0.100175
'62_2158_I',0.238097
'62_2159_I',0.290967
'62_2160_I',0.283955
'62_2161_I',0.185533
'62_2162_I',0.358207
'62_2163_I',0.355158
'62_2164_I',0.327428
'62_2165_I',0.360353
'62_2166_I',0.289281
'62_2167_I',0.174366
'62_2168_I',0.268833
'62_2169_I',0.360550
'62_2170_I',0.365416
'62_2171_I',0.357527
'62_2172_I',0.412458
'62_2173_I',0.303619
'62_2174_I',0.368496
'62_2175_I',0.427080
'62_2176_I',0.365372
'62_2177_I',0.253466
'62_2178_I',0.285532
'62_2179_I',0.468595
'62_2180_I',0.528530
'62_2181_I',0.510530
'62_2182_I',0.419879
'62_2183_I',0.279956
'62_2184_I',0.403182
'62_2185_I',0.563534
'62_2186_I',0.472590
'62_2187_I',0.393368
'62_2188_I',0.480294
'62_2189_I',0.293748
'62_2190_I',0.354316
'62_2191_I',0.318600
'62_2192_I',0.477051
'62_2193_I',0.504517
'62_2194_I',0.420676
'62_2195_I',0.351655
'62_2196_I',0.439800
'62_2197_I',0.395881
'62_2198_I',0.367622
'62_2199_I',0.483776
'62_2200_I',0.376650
'62_2201_I',0.298322
'62_2202_I',0.322989
'62_2203_I',0.299453
'62_2204_I',0.486843
'62_2205_I',0.479379
'62_2206_I',0.476572
'62_2207_I',0.527407
'62_2208_I',0.589877
'62_2209_I',0.413435
'62_2210_I',0.515222
'62_2211_I',0.318458
'62_2212_I',0.616068
'62_2213_I',0.355424
'62_2214_I',0.410539
'62_2215_I',0.423349
'62_2216_I',0.331996
'62_2217_I',0.489315
'62_2218_I',0.508813
'62_2219_I',0.469777
'62_2220_I',0.335920
'62_2221_I',0.689439
'62_2222_I',0.547110
'62_2223_I',0.756625
'62_2224_I',0.413638
'62_2225_I',0.590812
'62_2226_I',0.573756
'62_2227_I',0.467505
'62_2228_I',0.638331
'62_2229_I',0.457277
'62_2230_I',0.462251
'62_2231_I',0.151647
'62_2232_I',0.540073
'62_2233_I',0.366927
'62_2234_I',0.444643
'62_2235_I',0.397259
'62_2236_I',0.463352
'62_2237_I',0.544387
'62_2238_I',0.501065
'62_2239_I',0.570796
'62_2240_I',0.626204
'62_2241_I',0.462500
'62_2242_I',0.451190
'62_2243_I',0.594416
'62_2244_I',0.601873
'62_2245_I',0.571681
'62_2246_I',0.401788
'62_2247_I',0.538583
'62_2248_I',0.506506
'62_2249_I',0.599983
'62_2250_I',0.436544
'62_2251_I',0.326200
'62_2252_I',0.560844
'62_2253_I',0.234874
'62_2254_I',0.416379
'62_2255_I',0.385961
'62_2256_I',0.383967
'62_2257_I',0.410669
'62_2258_I',0.605851
'62_2259_I',0.564642
'62_2260_I',0.455817
'62_2261_I',0.592688
'62_2262_I',0.371363
'62_2263_I',0.355964
'62_2264_I',0.560283
'62_2265_I',0.529952
'62_2266_I',0.423958
'62_2267_I',0.354367
'62_2268_I',0.611749
'62_2269_I',0.291562
'62_2270_I',0.401461
'62_2271_I',0.481825
'62_2272_I',0.636783
'62_2273_I',0.492411
'62_2274_I',0.499601
'62_2275_I',0.392037
'62_2276_I',0.503165
'62_2277_I',0.454125
'62_2278_I',0.281962
'62_2279_I',0.517254
'62_2280_I',0.532089
'62_2281_I',0.512413
'62_2282_I',0.432374
'62_2283_I',0.330328
'62_2284_I',0.191871
'62_2285_I',0.435278
'62_2286_I',0.524491
'62_2287_I',0.512514
'62_2288_I',0.491173
'62_2289_I',0.398692
'62_2290_I',0.511349
'62_2291_I',0.491450
'62_2292_I',0.353146
'62_2293_I',0.459387
'62_2294_I',0.334394
'62_2295_I',0.438200
'62_2296_I',0.250439
'62_2297_I',0.254228
'62_2298_I',0.478314
'62_2299_I',0.462241
'62_2300_I',0.427786
'62_2301_I',0.369109
'62_2302_I',0.117020
'62_2303_I',0.344445
'62_2304_I',0.393086
'62_2305_I',0.289880
'62_2306_I',0.267740
'62_2307_I',0.479020
'62_2308_I',0.324090
'62_2309_I',0.371091
'62_2310_I',0.398472
'62_2311_I',0.216317
'62_2312_I',0.331137
'62_2313_I',0.439093
'62_2314_I',0.484319
'62_2315_I',0.301615
'62_2316_I',0.269009
'62_2317_I',0.314847
'62_2318_I',0.307408
'62_2319_I',0.416779
'62_2320_I',0.173484
'62_2321_I',0.240117
'62_2322_I',0.151333
'62_2323_I',0.156742
'62_2324_I',0.290478
'62_2325_I',0.328638
'62_2326_I',0.177510
'62_2327_I',0.314422
'62_2328_I',0.343099
'62_2329_I',0.420107
'62_2330_I',0.228274
'62_2331_I',0.151955
'62_2332_I',0.110285
'62_2333_I',0.094924
'62_2334_I',0.324623
'62_2335_I',0.042649
'62_2336_I',0.310419
'62_2337_I',0.096259
'62_2338_I',0.109015
'62_2339_I',0.156787
'62_2340_I',0.095960
'62_2341_I',0.253883
'62_2342_I',0.336356
'62_2343_I',0.083592
'62_2344_I',0.100405
'62_2345_I',0.121569
'62_2346_I',0.186259
'62_2347_I',0.111039
'62_2348_I',0.259329
'62_2349_I',0.229464
'62_2350_I',-0.009562
'62_2351_I',0.155248
'62_2352_I',0.249337
'62_2353_I',0.041964
'62_2354_I',0.056140
'62_2355_I',0.026876
'62_2356_I',0.023074
'62_2357_I',-0.098972
'62_2358_I',-0.070877
'62_2359_I',0.063774
'62_2360_I',0.201451
'62_2361_I',-0.017187
'62_2362_I',-0.026075
'62_2363_I',0.202398
'62_2364_I',-0.084538
'62_2365_I',-0.145799
'62_2366_I',-0.068492
'62_2367_I',-0.057887
'62_2368_I',-0.172322
'62_2369_I',-0.016350
'62_2370_I',0.085330
'62_2371_I',-0.144077
'62_2372_I',-0.012689
'62_2373_I',0.012185
'62_2374_I',-0.041705
'62_2375_I',-0.020750
'62_2376_I',-0.025534
'62_2377_I',-0.132481
'62_2378_I',0.092716
'62_2379_I',0.061708
'62_2380_I',0.050006
'62_2381_I',0.026476
'62_2382_I',-0.238286
'62_2383_I',0.005934
'62_2384_I',-0.026985
'62_2385_I',-0.252057
'62_2386_I',-0.125740
'62_2387_I',-0.082400
'62_2388_I',0.050537
'62_2389_I',-0.049220
'62_2390_I',-0.213930
'62_2391_I',0.036303
'62_2392_I',-0.134601
'62_2393_I',-0.170287
'62_2394_I',-0.183118
'62_2395_I',-0.318444
'62_2396_I',-0.172725
'62_2397_I',-0.117636
'62_2398_I',-0.211535
'62_2399_I',-0.136539
'62_2400_I',-0.270586
'62_2401_I',-0.203776
'62_2402_I',-0.163538
'62_2403_I',-0.181708
'62_2404_I',-0.366673
'62_2405_I',-0.255451
'62_2406_I',-0.049197
'62_2407_I',-0.271550
'62_2408_I',-0.226056
'62_2409_I',-0.241610
'62_2410_I',-0.081376
'62_2411_I',-0.114394
'62_2412_I',-0.167874
'62_2413_I',-0.351112
'62_2414_I',-0.222995
'62_2415_I',-0.207207
'62_2416_I',-0.338911
'62_2417_I',-0.361115
'62_2418_I',-0.108534
'62_2419_I',-0.314049
'62_2420_I',-0.127364
'62_2421_I',-0.194003
'62_2422_I',-0.257735
'62_2423_I',-0.258036
'62_2424_I',-0.448055
'62_2425_I',-0.292016
'62_2426_I',-0.175627
'62_2427_I',-0.253785
'62_2428_I',-0.311029
'62_2429_I',-0.159767
'62_2430_I',-0.353915
'62_2431_I',-0.401770
'62_2432_I',-0.328785
'62_2433_I',-0.271827
'62_2434_I',-0.524509
'62_2435_I',-0.328448
'62_2436_I',-0.280055
'62_2437_I',-0.392156
'62_2438_I',-0.258547
'62_2439_I',-0.309123
'62_2440_I',-0.163048
'62_2441_I',-0.456138
'62_2442_I',-0.301844
'62_2443_I',-0.490430
'62_2444_I',-0.553961
'62_2445_I',-0.599648
'62_2446_I',-0.345877
'62_2447_I',-0.384842
'62_2448_I',-0.454672
'62_2449_I',-0.587559
'62_2450_I',-0.482631
'62_2451_I',-0.416508
'62_2452_I',-0.340866
'62_2453_I',-0.425041
'62_2454_I',-0.401327
'62_2455_I',-0.467230
'62_2456_I',-0.257718
'62_2457_I',-0.537426
'62_2458_I',-0.508424
'62_2459_I',-0.490573
'62_2460_I',-0.389841
'62_2461_I',-0.550708
'62_2462_I',-0.435897
'62_2463_I',-0.435560
'62_2464_I',-0.524006
'62_2465_I',-0.424026
'62_2466_I',-0.560193
'62_2467_I',-0.573442
'62_2468_I',-0.454032
'62_2469_I',-0.632159
'62_2470_I',-0.682788
'62_2471_I',-0.417082
'62_2472_I',-0.367460
'62_2473_I',-0.520960
'62_2474_I',-0.542943
'62_2475_I',-0.377371
'62_2476_I',-0.594198
'62_2477_I',-0.617633
'62_2478_I',-0.412115
'62_2479_I',-0.483489
'62_2480_I',-0.379350
'62_2481_I',-0.701241
'62_2482_I',-0.628588
'62_2483_I',-0.488324
'62_2484_I',-0.449157
'62_2485_I',-0.407322
'62_2486_I',-0.475567
'62_2487_I',-0.477540
'62_2488_I',-0.533832
'62_2489_I',-0.336617
'62_2490_I',-0.606755
'62_2491_I',-0.461225
'62_2492_I',-0.596511
'62_2493_I',-0.444785
'62_2494_I',-0.602426
'62_2495_I',-0.424734
'62_2496_I',-0.488224
'62_2497_I',-0.325219
'62_2498_I',-0.527962
'62_2499_I',-0.457469
'62_2500_I',-0.577966
'62_2501_I',-0.528753
'62_2502_I',-0.489280
'62_2503_I',-0.652398
'62_2504_I',-0.641188
'62_2505_I',-0.439118
'62_2506_I',-0.513320
'62_2507_I',-0.557540
'62_2508_I',-0.571411
'62_2509_I',-0.566955
'62_2510_I',-0.485175
'62_2511_I',-0.451179
'62_2512_I',-0.704075
'62_2513_I',-0.352693
'62_2514_I',-0.358847
'62_2515_I',-0.725053
'62_2516_I',-0.382296
'62_2517_I',-0.384197
'62_2518_I',-0.488436
'62_2519_I',-0.616888
'62_2520_I',-0.384270
'62_2521_I',-0.508469
'62_2522_I',-0.427942
'62_2523_I',-0.259324
'62_2524_I',-0.454407
'62_2525_I',-0.569557
'62_2526_I',-0.509651
'62_2527_I',-0.553164
'62_2528_I',-0.428945
'62_2529_I',-0.550908
'62_2530_I',-0.515526
'62_2531_I',-0.594558
'62_2532_I',-0.477130
'62_2533_I',-0.443987
'62_2534_I',-0.727816
'62_2535_I',-0.430989
'62_2536_I',-0.459061
'62_2537_I',-0.528469
'62_2538_I',-0.246522
'62_2539_I',-0.350889
'62_2540_I',-0.553664
'62_2541_I',-0.357424
'62_2542_I',-0.313959
'62_2543_I',-0.422306
'62_2544_I',-0.396401
'62_2545_I',-0.395685
'62_2546_I',-0.635015
'62_2547_I',-0.441974
'62_2548_I',-0.443971
'62_2549_I',-0.273797
'62_2550_I',-0.380113
'62_2551_I',-0.439861
'62_2552_I',-0.415669
'62_2553_I',-0.300816
'62_2554_I',-0.418054
'62_2555_I',-0.465799
'62_2556_I',-0.419877
'62_2557_I',-0.294508
'62_2558_I',-0.335177
'62_2559_I',-0.376528
'62_2560_I',-0.357908
'62_2561_I',-0.429089
'62_2562_I',-0.388510
'62_2563_I',-0.431393
'62_2564_I',-0.390436
'62_2565_I',-0.222184
'62_2566_I',-0.460382
'62_2567_I',-0.417209
'62_2568_I',-0.469460
'62_2569_I',-0.486765
'62_2570_I',-0.353948
'62_2571_I',-0.392579
'62_2572_I',-0.150150
'62_2573_I',-0.350058
'62_2574_I',-0.188242
'62_2575_I',-0.215744
'62_2576_I',-0.328759
'62_2577_I',-0.092125
'62_2578_I',-0.271517
'62_2579_I',-0.142258
'62_2580_I',-0.149047
'62_2581_I',-0.242348
'62_2582_I',-0.203765
'62_2583_I',-0.211497
'62_2584_I',-0.383317
'62_2585_I',-0.258110
'62_2586_I',-0.151326
'62_2587_I',-0.101006
'62_2588_I',-0.320526
'62_2589_I',-0.190382
'62_2590_I',-0.222946
'62_2591_I',-0.244554
'62_2592_I',-0.191867
'62_2593_I',-0.200336
'62_2594_I',-0.162631
'62_2595_I',-0.067206
'62_2596_I',-0.127541
'62_2597_I',-0.169441
'62_2598_I',-0.008555
'62_2599_I',-0.078515
'62_2600_I',-0.193210
'62_2601_I',-0.300119
'62_2602_I',-0.271601
'62_2603_I',-0.073882
'62_2604_I',-0.224599
'62_2605_I',-0.256713
'62_2606_I',-0.226034
'62_2607_I',-0.213260
'62_2608_I',-0.053732
'62_2609_I',-0.148727
'62_2610_I',-0.264527
'62_2611_I',-0.118404
'62_2612_I',-0.093483
'62_2613_I',-0.157828
'62_2614_I',0.011525
'62_2615_I',-0.140312
'62_2616_I',0.018475
'62_2617_I',-0.026807
'62_2618_I',0.012060
'62_2619_I',-0.184559
'62_2620_I',-0.058966
'62_2621_I',-0.068162
'62_2622_I',-0.199154
'62_2623_I',0.059487
'62_2624_I',-0.126818
'62_2625_I',-0.100087
'62_2626_I',-0.134508
'62_2627_I',0.042900
'62_2628_I',-0.173850
'62_2629_I',0.046496
'62_2630_I',0.095127
'62_2631_I',0.050362
'62_2632_I',0.073876
'62_2633_I',0.084537
'62_2634_I',-0.080393
'62_2635_I',0.163988
'62_2636_I',-0.019530
'62_2637_I',0.025797
'62_2638_I',0.005126
'62_2639_I',0.093493
'62_2640_I',-0.003523
'62_2641_I',0.062907
'62_2642_I',-0.061392
'62_2643_I',0.184528
'62_2644_I',0.141044
'62_2645_I',0.050642
'62_2646_I',0.038839
'62_2647_I',0.156091
'62_2648_I',0.026760
'62_2649_I',0.115874
'62_2650_I',0.225310
'62_2651_I',0.033861
'62_2652_I',0.157648
'62_2653_I',0.158144
'62_2654_I',0.122603
'62_2655_I',0.087704
'62_2656_I',0.265290
'62_2657_I',0.089760
'62_2658_I',-0.026002
'62_2659_I',0.224918
'62_2660_I',0.046375
'62_2661_I',0.241310
'62_2662_I',0.311204
'62_2663_I',0.246255
'62_2664_I',0.295961
'62_2665_I',0.396339
'62_2666_I',0.296496
'62_2667_I',0.238334
'62_2668_I',0.374100
'62_2669_I',0.391580
'62_2670_I',0.398347
'62_2671_I',0.177591
'62_2672_I',0.096707
'62_2673_I',0.182060
'62_2674_I',0.312980
'62_2675_I',0.263734
'62_2676_I',0.232336
'62_2677_I',0.314163
'62_2678_I',0.116128
'62_2679_I',0.282381
'62_2680_I',0.385128
'62_2681_I',0.333193
'62_2682_I',0.352382
'62_2683_I',0.447837
'62_2684_I',0.286343
'62_2685_I',0.232465
'62_2686_I',0.421499
'62_2687_I',0.424390
'62_2688_I',0.367794
'62_2689_I',0.300570
'62_2690_I',0.321343
'62_2691_I',0.198079
'62_2692_I',0.441556
'62_2693_I',0.442484
'62_2694_I',0.207961
'62_2695_I',0.430255
'62_2696_I',0.388215
'62_2697_I',0.249870
'62_2698_I',0.235681
'62_2699_I',0.397793
'62_2700_I',0.324784
'62_2701_I',0.550609
'62_2702_I',0.467880
'62_2703_I',0.423943
'62_2704_I',0.432782
'62_2705_I',0.517406
'62_2706_I',0.472762
'62_2707_I',0.441822
'62_2708_I',0.297499
'62_2709_I',0.705343
'62_2710_I',0.292397
'62_2711_I',0.374970
'62_2712_I',0.244202
'62_2713_I',0.466948
'62_2714_I',0.431513
'62_2715_I',0.496204
'62_2716_I',0.248984
'62_2717_I',0.537336
'62_2718_I',0.348396
'62_2719_I',0.417271
'62_2720_I',0.528300
'62_2721_I',0.464178
'62_2722_I',0.474093
'62_2723_I',0.523600
'62_2724_I',0.489282
'62_2725_I',0.414949
'62_2726_I',0.435005
'62_2727_I',0.475369
'62_2728_I',0.367089
'62_2729_I',0.558644
'62_2730_I',0.490242
'62_2731_I',0.471121
'62_2732_I',0.585095
'62_2733_I',0.455969
'62_2734_I',0.451807
'62_2735_I',0.423587
'62_2736_I',0.508291
'62_2737_I',0.506696
'62_2738_I',0.411021
'62_2739_I',0.461611
'62_2740_I',0.415082
'62_2741_I',0.412149
'62_2742_I',0.311171
'62_2743_I',0.462526
'62_2744_I',0.316782
'62_2745_I',0.442039
'62_2746_I',0.428299
'62_2747_I',0.595936
'62_2748_I',0.390361
'62_2749_I',0.416774
'62_2750_I',0.455708
'62_2751_I',0.436743
'62_2752_I',0.632510
'62_2753_I',0.382484
'62_2754_I',0.459086
'62_2755_I',0.530847
'62_2756_I',0.586303
'62_2757_I',0.460633
'62_2758_I',0.307249
'62_2759_I',0.484379
'62_2760_I',0.634852
'62_2761_I',0.528056
'62_2762_I',0.523595
'62_2763_I',0.393697
'62_2764_I',0.383407
'62_2765_I',0.501681
'62_2766_I',0.357071
'62_2767_I',0.577606
'62_2768_I',0.414494
'62_2769_I',0.496311
'62_2770_I',0.309748
'62_2771_I',0.458420
'62_2772_I',0.378620
'62_2773_I',0.264345
'62_2774_I',0.549988
'62_2775_I',0.659113
'62_2776_I',0.607067
'62_2777_I',0.561341
'62_2778_I',0.450741
'62_2779_I',0.571654
'62_2780_I',0.612292
'62_2781_I',0.502360
'62_2782_I',0.368944
'62_2783_I',0.436075
'62_2784_I',0.654846
'62_2785_I',0.475596
'62_2786_I',0.149021
'62_2787_I',0.332961
'62_2788_I',0.435697
'62_2789_I',0.579945
'62_2790_I',0.447202
'62_2791_I',0.578043
'62_2792_I',0.418001
'62_2793_I',0.272138
'62_2794_I',0.417295
'62_2795_I',0.498763
'62_2796_I',0.488214
'62_2797_I',0.334194
'62_2798_I',0.422204
'62_2799_I',0.723346
'62_2800_I',0.329041
'62_2801_I',0.515866
'62_2802_I',0.237487
'62_2803_I',0.530831
'62_2804_I',0.352453
'62_2805_I',0.479066
'62_2806_I',0.306813
'62_2807_I',0.462097
'62_2808_I',0.339131
'62_2809_I',0.355415
'62_2810_I',0.467981
'62_2811_I',0.377546
'62_2812_I',0.455365
'62_2813_I',0.394925
'62_2814_I',0.417382
'62_2815_I',0.451707
'62_2816_I',0.368704
'62_2817_I',0.300550
'62_2818_I',0.343316
'62_2819_I',0.512398
'62_2820_I',0.400781
'62_2821_I',0.300899
'62_2822_I',0.421714
'62_2823_I',0.424505
'62_2824_I',0.425735
'62_2825_I',0.271960
'62_2826_I',0.297460
'62_2827_I',0.293919
'62_2828_I',0.321389
'62_2829_I',0.407147
'62_2830_I',0.378624
'62_2831_I',0.382228
'62_2832_I',0.475760
'62_2833_I',0.404851
'62_2834_I',0.317337
'62_2835_I',0.208636
'62_2836_I',0.251032
'62_2837_I',0.291732
'62_2838_I',0.396185
'62_2839_I',0.305865
'62_2840_I',0.238260
'62_2841_I',0.225828
'62_2842_I',0.287356
'62_2843_I',0.378466
'62_2844_I',0.443682
'62_2845_I',0.259075
'62_2846_I',0.270209
'62_2847_I',0.148282
'62_2848_I',0.458550
'62_2849_I',0.119447
'62_2850_I',0.371594
'62_2851_I',0.212737
'62_2852_I',0.184142
'62_2853_I',0.127852
'62_2854_I',0.474596
'62_2855_I',0.250446
'62_2856_I',0.225099
'62_2857_I',0.306285
'62_2858_I',0.147139
'62_2859_I',0.206988
'62_2860_I',0.206987
'62_2861_I',0.144661
'62_2862_I',0.310334
'62_2863_I',0.162972
'62_2864_I',0.023965
'62_2865_I',0.143543
'62_2866_I',0.193001
'62_2867_I',0.073101
'62_2868_I',0.075334
'62_2869_I',0.096488
'62_2870_I',0.267537
'62_2871_I',0.090977
'62_2872_I',0.276863
'62_2873_I',0.066696
'62_2874_I',0.154914
'62_2875_I',0.071992
'62_2876_I',0.186212
'62_2877_I',-0.006852
'62_2878_I',0.173418
'62_2879_I',0.104661
'62_2880_I',0.023405
'62_2881_I',0.064898
'62_2882_I',0.229011
'62_2883_I',0.083504
'62_2884_I',-0.006468
'62_2885_I',-0.062590
'62_2886_I',0.102487
'62_2887_I',0.065591
'62_2888_I',0.109562
'62_2889_I',-0.112115
'62_2890_I',-0.089076
'62_2891_I',0.136876
'62_2892_I',0.049358
'62_2893_I',0.063597
'62_2894_I',-0.091981
'62_2895_I',-0.099780
'62_2896_I',0.091476
'62_2897_I',0.090220
'62_2898_I',-0.128415
'62_2899_I',-0.153483
'62_2900_I',-0.042365
'62_2901_I',-0.117395
'62_2902_I',-0.125427
'62_2903_I',-0.174491
'62_2904_I',-0.102132
'62_2905_I',-0.176687
'62_2906_I',-0.176677
'62_2907_I',-0.043208
'62_2908_I',-0.084467
'62_2909_I',-0.036347
'62_2910_I',-0.255615
'62_2911_I',-0.095587
'62_2912_I',0.105139
'62_2913_I',-0.145487
'62_2914_I',-0.031604
'62_2915_I',-0.038282
'62_2916_I',-0.039149
'62_2917_I',-0.114771
'62_2918_I',-0.080578
'62_2919_I',-0.073016
'62_2920_I',-0.085082
'62_2921_I',-0.266057
'62_2922_I',-0.330720
'62_2923_I',-0.320984
'62_2924_I',-0.198262
'62_2925_I',-0.117449
'62_2926_I',-0.292853
'62_2927_I',-0.095559
'62_2928_I',-0.243702
'62_2929_I',-0.248240
'62_2930_I',-0.288037
'62_2931_I',-0.398337
'62_2932_I',-0.192330
'62_2933_I',-0.049367
'62_2934_I',-0.232241
'62_2935_I',-0.416346
'62_2936_I',-0.158524
'62_2937_I',-0.404280
'62_2938_I',-0.367911
'62_2939_I',-0.276013
'62_2940_I',-0.245031
'62_2941_I',-0.363281
'62_2942_I',-0.295209
'62_2943_I',-0.200985
'62_2944_I',-0.192268
'62_2945_I',-0.157286
'62_2946_I',-0.096395
'62_2947_I',-0.211213
'62_2948_I',-0.318698
'62_2949_I',-0.215873
'62_2950_I',-0.259870
'62_2951_I',-0.260599
'62_2952_I',-0.298163
'62_2953_I',-0.411695
'62_2954_I',-0.427858
'62_2955_I',-0.339272
'62_2956_I',-0.319135
'62_2957_I',-0.406388
'62_2958_I',-0.300479
'62_2959_I',-0.139057
'62_2960_I',-0.525838
'62_2961_I',-0.297402
'62_2962_I',-0.366394
'62_2963_I',-0.318850
'62_2964_I',-0.411054
'62_2965_I',-0.386604
'62_2966_I',-0.363010
'62_2967_I',-0.410031
'62_2968_I',-0.535776
'62_2969_I',-0.410913
'62_2970_I',-0.532909
'62_2971_I',-0.329635
'62_2972_I',-0.585141
'62_2973_I',-0.299296
'62_2974_I',-0.362723
'62_2975_I',-0.365801
'62_2976_I',-0.628973
'62_2977_I',-0.448745
'62_2978_I',-0.303812
'62_2979_I',-0.474254
'62_2980_I',-0.533363
'62_2981_I',-0.492327
'62_2982_I',-0.438530
'62_2983_I',-0.519820
'62_2984_I',-0.314220
'62_2985_I',-0.446925
'62_2986_I',-0.498808
'62_2987_I',-0.576116
'62_2988_I',-0.400204
'62_2989_I',-0.405085
'62_2990_I',-0.533011
'62_2991_I',-0.679897
'62_2992_I',-0.417596
'62_2993_I',-0.479697
'62_2994_I',-0.429687
'62_2995_I',-0.269788
'62_2996_I',-0.470334
'62_2997_I',-0.521114
'62_2998_I',-0.586474
'62_2999_I',-0.504929
'62_3000_I',-0.459506
'62_3001_I',-0.472042
'62_3002_I',-0.306768
'62_3003_I',-0.430879
'62_3004_I',-0.495872
'62_3005_I',-0.554583
'62_3006_I',-0.458727
'62_3007_I',-0.577492
'62_3008_I',-0.470137
'62_3009_I',-0.440637
'62_3010_I',-0.512213
'62_3011_I',-0.554715
'62_3012_I',-0.711265
'62_3013_I',-0.379330
'62_3014_I',-0.454292
'62_3015_I',-0.452698
'62_3016_I',-0.652363
'62_3017_I',-0.358940
'62_3018_I',-0.544071
'62_3019_I',-0.526984
'62_3020_I',-0.605517
'62_3021_I',-0.677695
'62_3022_I',-0.383608
'62_3023_I',-0.370953
'62_3024_I',-0.516365
'62_3025_I',-0.567879
'62_3026_I',-0.537701
'62_3027_I',-0.534944
'62_3028_I',-0.619883
'62_3029_I',-0.528965
'62_3030_I',-0.484201
'62_3031_I',-0.397396
'62_3032_I',-0.497417
'62_3033_I',-0.656035
'62_3034_I',-0.462532
'62_3035_I',-0.522897
'62_3036_I',-0.359608
'62_3037_I',-0.352978
'62_3038_I',-0.348682
'62_3039_I',-0.550420
'62_3040_I',-0.294339
'62_3041_I',-0.457223
'62_3042_I',-0.328601
'62_3043_I',-0.540354
'62_3044_I',-0.518734
'62_3045_I',-0.460185
'62_3046_I',-0.471043
'62_3047_I',-0.359324
'62_3048_I',-0.506524
'62_3049_I',-0.365285
'62_3050_I',-0.406891
'62_3051_I',-0.499753
'62_3052_I',-0.411177
'62_3053_I',-0.522134
'62_3054_I',-0.237883
'62_3055_I',-0.737364
'62_3056_I',-0.401598
'62_3057_I',-0.643246
'62_3058_I',-0.487179
'62_3059_I',-0.470936
'62_3060_I',-0.309307
'62_3061_I',-0.526915
'62_3062_I',-0.324464
'62_3063_I',-0.570646
'62_3064_I',-0.315533
'62_3065_I',-0.495005
'62_3066_I',-0.437535
'62_3067_I',-0.475760
'62_3068_I',-0.311067
'62_3069_I',-0.327647
'62_3070_I',-0.389127
'62_3071_I',-0.545658
'62_3072_I',-0.498907
'62_3073_I',-0.527134
'62_3074_I',-0.645902
'62_3075_I',-0.291708
'62_3076_I',-0.447314
'62_3077_I',-0.445014
'62_3078_I',-0.258128
'62_3079_I',-0.451854
'62_3080_I',-0.484761
'62_3081_I',-0.419590
'62_3082_I',-0.506727
'62_3083_I',-0.355313
'62_3084_I',-0.423348
'62_3085_I',-0.432887
'62_3086_I',-0.437674
'62_3087_I',-0.384976
'62_3088_I',-0.362022
'62_3089_I',-0.418332
'62_3090_I',-0.398122
'62_3091_I',-0.366258
'62_3092_I',-0.372156
'62_3093_I',-0.346565
'62_3094_I',-0.413049
'62_3095_I',-0.240582
'62_3096_I',-0.326969
'62_3097_I',-0.382599
'62_3098_I',-0.293291
'62_3099_I',-0.330635
'62_3100_I',-0.492004
'62_3101_I',-0.279903
'62_3102_I',-0.411282
'62_3103_I',-0.211177
'62_3104_I',-0.324039
'62_3105_I',-0.217060
'62_3106_I',-0.353249
'62_3107_I',-0.278353
'62_3108_I',-0.159400
'62_3109_I',-0.302364
'62_3110_I',-0.329543
'62_3111_I',-0.199918
'62_3112_I',-0.196778
'62_3113_I',-0.310105
'62_3114_I',-0.448625
'62_3115_I',-0.305895
'62_3116_I',-0.171935
'62_3117_I',-0.311919
'62_3118_I',-0.230220
'62_3119_I',-0.289553
'62_3120_I',-0.411668
'62_3121_I',-0.280615
'62_3122_I',-0.140338
'62_3123_I',-0.439232
'62_3124_I',-0.171517
'62_3125_I',-0.309839
'62_3126_I',-0.124859
'62_3127_I',-0.108716
'62_3128_I',-0.191762
'62_3129_I',-0.185928
'62_3130_I',-0.243968
'62_3131_I',-0.292237
'62_3132_I',0.017806
'62_3133_I',-0.232813
'62_3134_I',0.016192
'62_3135_I',-0.220799
'62_3136_I',-0.076573
'62_3137_I',-0.237097
'62_3138_I',-0.065183
'62_3139_I',-0.144272
'62_3140_I',-0.137139
'62_3141_I',-0.039044
'62_3142_I',-0.141105
'62_3143_I',-0.231137
'62_3144_I',-0.006310
'62_3145_I',-0.191137
'62_3146_I',-0.018992
'62_3147_I',0.032570
'62_3148_I',-0.096355
'62_3149_I',0.065361
'62_3150_I',0.001243
'62_3151_I',-0.110575
'62_3152_I',0.105106
'62_3153_I',-0.143248
'62_3154_I',-0.060790
'62_3155_I',-0.037787
'62_3156_I',0.049334
'62_3157_I',0.106323
'62_3158_I',0.106027
'62_3159_I',0.029092
'62_3160_I',-0.015342
'62_3161_I',-0.163947
'62_3162_I',-0.106800
'62_3163_I',0.207240
'62_3164_I',-0.147077
'62_3165_I',-0.035969
'62_3166_I',0.162885
'62_3167_I',0.075334
'62_3168_I',0.153096
'62_3169_I',0.120496
'62_3170_I',0.219083
'62_3171_I',0.107569
'62_3172_I',0.150261
'62_3173_I',0.017370
'62_3174_I',0.154293
'62_3175_I',0.061899
'62_3176_I',0.062039
'62_3177_I',0.202644
'62_3178_I',0.209140
'62_3179_I',0.293610
'62_3180_I',0.292864
'62_3181_I',0.228022
'62_3182_I',-0.030021
'62_3183_I',0.330504
'62_3184_I',0.245225
'62_3185_I',0.082512
'62_3186_I',0.237636
'62_3187_I',0.066643
'62_3188_I',0.237832
'62_3189_I',0.049916
'62_3190_I',0.106270
'62_3191_I',0.263607
'62_3192_I',0.305397
'62_3193_I',0.236119
'62_3194_I',0.180395
'62_3195_I',0.002933
'62_3196_I',0.198894
'62_3197_I',0.278491
'62_3198_I',0.198779
'62_3199_I',0.233479
'62_3200_I',0.222422
'62_3201_I',0.214026
'62_3202_I',0.258962
'62_3203_I',0.229246
'62_3204_I',0.405950
'62_3205_I',0.046047
'62_3206_I',0.217135
'62_3207_I',0.189684
'62_3208_I',0.303573
'62_3209_I',0.294288
'62_3210_I',0.453664
'62_3211_I',0.491388
'62_3212_I',0.223752
'62_3213_I',0.305855
'62_3214_I',0.330136
'62_3215_I',0.235380
'62_3216_I',0.382611
'62_3217_I',0.300388
'62_3218_I',0.222095
'62_3219_I',0.305375
'62_3220_I',0.237989
'62_3221_I',0.445798
'62_3222_I',0.536618
'62_3223_I',0.375223
'62_3224_I',0.366098
'62_3225_I',0.374392
'62_3226_I',0.481499
'62_3227_I',0.483421
'62_3228_I',0.359809
'62_3229_I',0.400603
'62_3230_I',0.444526
'62_3231_I',0.269355
'62_3232_I',0.508192
'62_3233_I',0.564168
'62_3234_I',0.510885
'62_3235_I',0.273463
'62_3236_I',0.204607
'62_3237_I',0.476006
'62_3238_I',0.332584
'62_3239_I',0.440728
'62_3240_I',0.568881
'62_3241_I',0.352964
'62_3242_I',0.384138
'62_3243_I',0.452739
'62_3244_I',0.298428
'62_3245_I',0.355445
'62_3246_I',0.436707
'62_3247_I',0.407104
'62_3248_I',0.500856
'62_3249_I',0.719417
'62_3250_I',0.455473
'62_3251_I',0.364065
'62_3252_I',0.592673
'62_3253_I',0.294516
'62_3254_I',0.316991
'62_3255_I',0.398790
'62_3256_I',0.432366
'62_3257_I',0.401035
'62_3258_I',0.462013
'62_3259_I',0.494795
'62_3260_I',0.576306
'62_3261_I',0.480551
'62_3262_I',0.417192
'62_3263_I',0.576739
'62_3264_I',0.395323
'62_3265_I',0.315586
'62_3266_I',0.601126
'62_3267_I',0.596331
'62_3268_I',0.404462
'62_3269_I',0.445260
'62_3270_I',0.394885
'62_3271_I',0.520579
'62_3272_I',0.662391
'62_3273_I',0.560674
'62_3274_I',0.595089
'62_3275_I',0.574549
'62_3276_I',0.493554
'62_3277_I',0.602819
'62_3278_I',0.569837
'62_3279_I',0.640057
'62_3280_I',0.450865
'62_3281_I',0.323645
'62_3282_I',0.602547
'62_3283_I',0.533494
'62_3284_I',0.469336
'62_3285_I',0.475278
'62_3286_I',0.755044
'62_3287_I',0.435566
'62_3288_I',0.414594
'62_3289_I',0.508521
'62_3290_I',0.618038
'62_3291_I',0.727755
'62_3292_I',0.565505
'62_3293_I',0.372511
'62_3294_I',0.696350
'62_3295_I',0.496957
'62_3296_I',0.414703
'62_3297_I',0.390033
'62_3298_I',0.581032
'62_3299_I',0.520639
'62_3300_I',0.530549
'62_3301_I',0.623907
'62_3302_I',0.414186
'62_3303_I',0.630091
'62_3304_I',0.440563
'62_3305_I',0.707813
'62_3306_I',0.550150
'62_3307_I',0.397046
'62_3308_I',0.285252
'62_3309_I',0.567340
'62_3310_I',0.447615
'62_3311_I',0.467992
'62_3312_I',0.558615
'62_3313_I',0.581415
'62_3314_I',0.601055
'62_3315_I',0.359441
'62_3316_I',0.617689
'62_3317_I',0.415301
'62_3318_I',0.245619
'62_3319_I',0.351371
'62_3320_I',0.488922
'62_3321_I',0.367076
'62_3322_I',0.453925
'62_3323_I',0.494260
'62_3324_I',0.439936
'62_3325_I',0.406214
'62_3326_I',0.328090
'62_3327_I',0.452799
'62_3328_I',0.241490
'62_3329_I',0.376703
'62_3330_I',0.349778
'62_3331_I',0.415810
'62_3332_I',0.415542
'62_3333_I',0.529937
'62_3334_I',0.589293
'62_3335_I',0.316110
'62_3336_I',0.624052
'62_3337_I',0.343660
'62_3338_I',0.435604
'62_3339_I',0.466138
'62_3340_I',0.656153
'62_3341_I',0.354049
'62_3342_I',0.225129
'62_3343_I',0.550308
'62_3344_I',0.314344
'62_3345_I',0.357876
'62_3346_I',0.278557
'62_3347_I',0.350704
'62_3348_I',0.298722
'62_3349_I',0.446537
'62_3350_I',0.383050
'62_3351_I',0.302891
'62_3352_I',0.466555
'62_3353_I',0.388387
'62_3354_I',0.174151
'62_3355_I',0.446543
'62_3356_I',0.368826
'62_3357_I',0.485128
'62_3358_I',0.354114
'62_3359_I',0.258169
'62_3360_I',0.312481
'62_3361_I',0.408825
'62_3362_I',0.246836
'62_3363_I',0.275310
'62_3364_I',0.292555
'62_3365_I',0.195126
'62_3366_I',0.229726
'62_3367_I',0.317865
'62_3368_I',0.416067
'62_3369_I',0.322700
'62_3370_I',0.281525
'62_3371_I',0.198068
'62_3372_I',0.385756
'62_3373_I',0.314596
'62_3374_I',0.195538
'62_3375_I',0.351005
'62_3376_I',0.311989
'62_3377_I',0.169533
'62_3378_I',0.235567
'62_3379_I',0.191212
'62_3380_I',0.498592
'62_3381_I',0.283129
'62_3382_I',0.243314
'62_3383_I',0.266556
'62_3384_I',0.351826
'62_3385_I',0.200161
'62_3386_I',0.144068
'62_3387_I',0.282019
'62_3388_I',0.174599
'62_3389_I',0.079579
'62_3390_I',0.054549
'62_3391_I',0.328370
'62_3392_I',0.183003
'62_3393_I',0.105256
'62_3394_I',0.135130
'62_3395_I',0.233635
'62_3396_I',0.117857
'62_3397_I',-0.003460
'62_3398_I',0.168331
'62_3399_I',0.250827
'62_3400_I',0.238366
'62_3401_I',0.062496
'62_3402_I',0.239539
'62_3403_I',0.128093
'62_3404_I',0.225074
'62_3405_I',0.152475
'62_3406_I',-0.062920
'62_3407_I',0.258034
'62_3408_I',0.082647
'62_3409_I',0.129246
'62_3410_I',-0.068751
'62_3411_I',0.110264
'62_3412_I',0.164094
'62_3413_I',0.241395
'62_3414_I',0.181958
'62_3415_I',0.091390
'62_3416_I',-0.124426
'62_3417_I',0.037278
'62_3418_I',-0.041164
'62_3419_I',0.035619
'62_3420_I',-0.115480
'62_3421_I',-0.020833
'62_3422_I',-0.057503
'62_3423_I',-0.066570
'62_3424_I',-0.071543
'62_3425_I',-0.037269
'62_3426_I',-0.001024
'62_3427_I',-0.285449
'62_3428_I',-0.279195
'62_3429_I',-0.081366
'62_3430_I',-0.073212
'62_3431_I',-0.040455
'62_3432_I',-0.138056
'62_3433_I',-0.070255
'62_3434_I',-0.064452
'62_3435_I',-0.156453
'62_3436_I',0.012469
'62_3437_I',-0.077046
'62_3438_I',-0.045902
'62_3439_I',-0.099554
'62_3440_I',0.098105
'62_3441_I',-0.058432
'62_3442_I',-0.172662
'62_3443_I',-0.047540
'62_3444_I',-0.299153
'62_3445_I',-0.129169
'62_3446_I',-0.114929
'62_3447_I',-0.139438
'62_3448_I',-0.191592
'62_3449_I',-0.265092
'62_3450_I',-0.248427
'62_3451_I',-0.164888
'62_3452_I',-0.292026
'62_3453_I',-0.009210
'62_3454_I',-0.455843
'62_3455_I',-0.229596
'62_3456_I',-0.191684
'62_3457_I',-0.157423
'62_3458_I',-0.305169
'62_3459_I',-0.105529
'62_3460_I',-0.363692
'62_3461_I',-0.286241
'62_3462_I',-0.172839
'62_3463_I',-0.136147
'62_3464_I',-0.385784
'62_3465_I',0.013936
'62_3466_I',-0.345464
'62_3467_I',-0.392044
'62_3468_I',-0.215628
'62_3469_I',-0.305765
'62_3470_I',-0.325538
'62_3471_I',-0.221327
'62_3472_I',-0.438538
'62_3473_I',-0.460900
'62_3474_I',-0.355264
'62_3475_I',-0.192526
'62_3476_I',-0.360472
'62_3477_I',-0.149858
'62_3478_I',-0.194336
'62_3479_I',-0.290761
'62_3480_I',-0.289656
'62_3481_I',-0.299955
'62_3482_I',-0.316664
'62_3483_I',-0.373693
'62_3484_I',-0.366472
'62_3485_I',-0.452785
'62_3486_I',-0.571080
'62_3487_I',-0.243906
'62_3488_I',-0.342773
'62_3489_I',-0.362013
'62_3490_I',-0.326873
'62_3491_I',-0.453589
'62_3492_I',-0.474834
'62_3493_I',-0.407021
'62_3494_I',-0.245714
'62_3495_I',-0.503214
'62_3496_I',-0.652808
'62_3497_I',-0.445948
'62_3498_I',-0.283188
'62_3499_I',-0.574305
'62_3500_I',-0.522615
'62_3501_I',-0.381710
'62_3502_I',-0.154494
'62_3503_I',-0.550668
'62_3504_I',-0.557843
'62_3505_I',-0.387522
'62_3506_I',-0.304107
'62_3507_I',-0.490107
'62_3508_I',-0.592898
'62_3509_I',-0.390383
'62_3510_I',-0.375212
'62_3511_I',-0.261707
'62_3512_I',-0.376691
'62_3513_I',-0.362329
'62_3514_I',-0.474037
'62_3515_I',-0.206295
'62_3516_I',-0.492818
'62_3517_I',-0.516690
'62_3518_I',-0.276976
'62_3519_I',-0.607715
'62_3520_I',-0.647330
'62_3521_I',-0.452866
'62_3522_I',-0.467162
'62_3523_I',-0.491876
'62_3524_I',-0.371727
'62_3525_I',-0.563907
'62_3526_I',-0.468568
'62_3527_I',-0.512825
'62_3528_I',-0.567699
'62_3529_I',-0.486456
'62_3530_I',-0.396638
'62_3531_I',-0.271398
'62_3532_I',-0.427001
'62_3533_I',-0.737446
'62_3534_I',-0.491526
'62_3535_I',-0.484012
'62_3536_I',-0.396583
'62_3537_I',-0.472863
'62_3538_I',-0.367106
'62_3539_I',-0.454249
'62_3540_I',-0.338466
'62_3541_I',-0.539081
'62_3542_I',-0.481561
'62_3543_I',-0.414050
'62_3544_I',-0.554581
'62_3545_I',-0.576940
'62_3546_I',-0.561380
'62_3547_I',-0.573801
'62_3548_I',-0.446987
'62_3549_I',-0.683017
'62_3550_I',-0.655355
'62_3551_I',-0.313633
'62_3552_I',-0.572496
'62_3553_I',-0.479993
'62_3554_I',-0.648846
'62_3555_I',-0.490384
'62_3556_I',-0.571491
'62_3557_I',-0.655622
'62_3558_I',-0.365273
'62_3559_I',-0.380289
'62_3560_I',-0.508790
'62_3561_I',-0.397552
'62_3562_I',-0.306532
'62_3563_I',-0.420750
'62_3564_I',-0.447416
'62_3565_I',-0.474644
'62_3566_I',-0.428675
'62_3567_I',-0.529031
'62_3568_I',-0.519247
'62_3569_I',-0.445369
'62_3570_I',-0.536649
'62_3571_I',-0.524577
'62_3572_I',-0.486644
'62_3573_I',-0.370198
'62_3574_I',-0.597051
'62_3575_I',-0.406325
'62_3576_I',-0.401452
'62_3577_I',-0.400371
'62_3578_I',-0.557879
'62_3579_I',-0.644657
'62_3580_I',-0.417535
'62_3581_I',-0.452801
'62_3582_I',-0.369099
'62_3583_I',-0.537505
'62_3584_I',-0.389288
'62_3585_I',-0.357640
'62_3586_I',-0.470328
'62_3587_I',-0.416755
'62_3588_I',-0.417836
'62_3589_I',-0.535700
'62_3590_I',-0.397898
'62_3591_I',-0.286149
'62_3592_I',-0.443506
'62_3593_I',-0.589082
'62_3594_I',-0.508913
'62_3595_I',-0.615271
'62_3596_I',-0.305378
'62_3597_I',-0.355007
'62_3598_I',-0.478506
'62_3599_I',-0.567066
'62_3600_I',-0.505420
'62_3601_I',-0.482689
'62_3602_I',-0.404631
'62_3603_I',-0.404647
'62_3604_I',-0.274672
'62_3605_I',-0.474625
'62_3606_I',-0.552645
'62_3607_I',-0.513943
'62_3608_I',-0.396910
'62_3609_I',-0.463782
'62_3610_I',-0.416366
'62_3611_I',-0.428763
'62_3612_I',-0.280477
'62_3613_I',-0.434284
'62_3614_I',-0.409355
'62_3615_I',-0.295872
'62_3616_I',-0.420027
'62_3617_I',-0.317083
'62_3618_I',-0.322081
'62_3619_I',-0.336827
'62_3620_I',-0.460167
'62_3621_I',-0.219425
'62_3622_I',-0.115960
'62_3623_I',-0.332723
'62_3624_I',-0.433771
'62_3625_I',-0.321709
'62_3626_I',-0.221070
'62_3627_I',-0.376966
'62_3628_I',-0.323684
'62_3629_I',-0.272031
'62_3630_I',-0.181050
'62_3631_I',-0.219028
'62_3632_I',-0.210057
'62_3633_I',-0.329502
'62_3634_I',-0.241774
'62_3635_I',-0.349213
'62_3636_I',-0.187475
'62_3637_I',-0.151878
'62_3638_I',-0.206598
'62_3639_I',-0.293573
'62_3640_I',-0.272065
'62_3641_I',-0.065865
'62_3642_I',-0.276377
'62_3643_I',-0.131062
'62_3644_I',-0.196893
'62_3645_I',-0.258885
'62_3646_I',-0.354592
'62_3647_I',-0.193592
'62_3648_I',-0.200237
'62_3649_I',-0.023258
'62_3650_I',-0.284466
'62_3651_I',0.036523
'62_3652_I',-0.149552
'62_3653_I',-0.144104
'62_3654_I',-0.235621
'62_3655_I',-0.139245
'62_3656_I',-0.117788
'62_3657_I',-0.065714
'62_3658_I',-0.251611
'62_3659_I',-0.007410
'62_3660_I',-0.106235
'62_3661_I',-0.075821
'62_3662_I',-0.152987
'62_3663_I',-0.217937
'62_3664_I',-0.112062
'62_3665_I',-0.094800
'62_3666_I',-0.246252
'62_3667_I',-0.022544
'62_3668_I',0.003631
'62_3669_I',-0.163123
'62_3670_I',-0.186538
'62_3671_I',-0.108686
'62_3672_I',-0.070100
'62_3673_I',-0.092995
'62_3674_I',-0.066749
'62_3675_I',-0.032581
'62_3676_I',-0.185618
'62_3677_I',-0.168177
'62_3678_I',-0.309125
'62_3679_I',0.063312
'62_3680_I',-0.023460
'62_3681_I',0.085766
'62_3682_I',-0.126827
'62_3683_I',-0.004645
'62_3684_I',0.020366
'62_3685_I',-0.051326
'62_3686_I',-0.144522
'62_3687_I',0.191375
'62_3688_I',0.162680
'62_3689_I',-0.009480
'62_3690_I',0.085693
'62_3691_I',-0.007857
'62_3692_I',-0.052972
'62_3693_I',0.235234
'62_3694_I',-0.107097
'62_3695_I',0.035814
'62_3696_I',0.078711
'62_3697_I',0.241307
'62_3698_I',0.171736
'62_3699_I',-0.079266
'62_3700_I',0.093554
'62_3701_I',0.101791
'62_3702_I',0.082693
'62_3703_I',0.173335
'62_3704_I',-0.023746
'62_3705_I',0.082096
'62_3706_I',0.176618
'62_3707_I',0.202452
'62_3708_I',0.155176
'62_3709_I',0.117114
'62_3710_I',0.139658
'62_3711_I',0.231370
'62_3712_I',0.166374
'62_3713_I',0.064430
'62_3714_I',0.050872
'62_3715_I',0.030841
'62_3716_I',0.330919
'62_3717_I',0.271638
'62_3718_I',0.185746
'62_3719_I',0.156491
'62_3720_I',0.149923
'62_3721_I',0.322057
'62_3722_I',0.408563
'62_3723_I',0.162936
'62_3724_I',0.342641
'62_3725_I',0.236891
'62_3726_I',0.218105
'62_3727_I',0.394993
'62_3728_I',0.248743
'62_3729_I',0.284549
'62_3730_I',0.284857
'62_3731_I',0.102550
'62_3732_I',0.298993
'62_3733_I',0.218886
'62_3734_I',0.138004
'62_3735_I',0.233330
'62_3736_I',0.237388
'62_3737_I',0.397758
'62_3738_I',0.193191
'62_3739_I',0.225343
'62_3740_I',0.332580
'62_3741_I',0.181132
'62_3742_I',0.252437
'62_3743_I',0.156470
'62_3744_I',0.419453
'62_3745_I',0.301803
'62_3746_I',0.334787
'62_3747_I',0.432372
'62_3748_I',0.272888
'62_3749_I',0.318211
'62_3750_I',0.248021
'62_3751_I',0.251998
'62_3752_I',0.269933
'62_3753_I',0.316834
'62_3754_I',0.331643
'62_3755_I',0.402973
'62_3756_I',0.288921
'62_3757_I',0.413886
'62_3758_I',0.434248
'62_3759_I',0.342736
'62_3760_I',0.312760
'62_3761_I',0.405399
'62_3762_I',0.380201
'62_3763_I',0.426073
'62_3764_I',0.564512
'62_3765_I',0.417818
'62_3766_I',0.350402
'62_3767_I',0.328548
'62_3768_I',0.335669
'62_3769_I',0.277805
'62_3770_I',0.520488
'62_3771_I',0.206956
'62_3772_I',0.482104
'62_3773_I',0.349435
'62_3774_I',0.387886
'62_3775_I',0.352151
'62_3776_I',0.589296
'62_3777_I',0.449038
'62_3778_I',0.529077
'62_3779_I',0.582661
'62_3780_I',0.471453
'62_3781_I',0.337990
'62_3782_I',0.437862
'62_3783_I',0.388010
'62_3784_I',0.414127
'62_3785_I',0.457192
'62_3786_I',0.455348
'62_3787_I',0.512018
'62_3788_I',0.528514
'62_3789_I',0.461278
'62_3790_I',0.516880
'62_3791_I',0.423371
'62_3792_I',0.611490
'62_3793_I',0.425097
'62_3794_I',0.602935
'62_3795_I',0.337109
'62_3796_I',0.448105
'62_3797_I',0.454408
'62_3798_I',0.516696
'62_3799_I',0.576201
'62_3800_I',0.366231
'62_3801_I',0.381454
'62_3802_I',0.353073
'62_3803_I',0.626224
'62_3804_I',0.524837
'62_3805_I',0.387439
'62_3806_I',0.452297
'62_3807_I',0.615441
'62_3808_I',0.470041
'62_3809_I',0.464651
'62_3810_I',0.420687
'62_3811_I',0.396692
'62_3812_I',0.617827
'62_3813_I',0.667118
'62_3814_I',0.401370
'62_3815_I',0.640473
'62_3816_I',0.451259
'62_3817_I',0.553310
'62_3818_I',0.640843
'62_3819_I',0.485120
'62_3820_I',0.466567
'62_3821_I',0.579132
'62_3822_I',0.387620
'62_3823_I',0.612842
'62_3824_I',0.511867
'62_3825_I',0.439189
'62_3826_I',0.435856
'62_3827_I',0.357163
'62_3828_I',0.441059
'62_3829_I',0.467368
'62_3830_I',0.386668
'62_3831_I',0.487207
'62_3832_I',0.537930
'62_3833_I',0.468107
'62_3834_I',0.554472
'62_3835_I',0.406162
'62_3836_I',0.585821
'62_3837_I',0.496201
'62_3838_I',0.637014
'62_3839_I',0.722310
'62_3840_I',0.432195
'62_3841_I',0.434576
'62_3842_I',0.451053
'62_3843_I',0.533374
'62_3844_I',0.604461
'62_3845_I',0.404575
'62_3846_I',0.505906
'62_3847_I',0.452047
'62_3848_I',0.525243
'62_3849_I',0.612104
'62_3850_I',0.434786
'62_3851_I',0.289428
'62_3852_I',0.528335
'62_3853_I',0.368139
'62_3854_I',0.434499
'62_3855_I',0.524851
'62_3856_I',0.473161
'62_3857_I',0.430460
'62_3858_I',0.380191
'62_3859_I',0.144875
'62_3860_I',0.501720
'62_3861_I',0.403554
'62_3862_I',0.577084
'62_3863_I',0.462393
'62_3864_I',0.365257
'62_3865_I',0.522776
'62_3866_I',0.527863
'62_3867_I',0.387448
'62_3868_I',0.525259
'62_3869_I',0.346850
'62_3870_I',0.414773
'62_3871_I',0.452321
'62_3872_I',0.469973
'62_3873_I',0.449906
'62_3874_I',0.350692
'62_3875_I',0.489477
'62_3876_I',0.363760
'62_3877_I',0.315341
'62_3878_I',0.312798
'62_3879_I',0.558167
'62_3880_I',0.285854
'62_3881_I',0.485048
'62_3882_I',0.238120
'62_3883_I',0.396189
'62_3884_I',0.372789
'62_3885_I',0.500837
'62_3886_I',0.268860
'62_3887_I',0.236771
'62_3888_I',0.313677
'62_3889_I',0.487252
'62_3890_I',0.227755
'62_3891_I',0.052682
'62_3892_I',0.312810
'62_3893_I',0.397051
'62_3894_I',0.195940
'62_3895_I',0.377294
'62_3896_I',0.184047
'62_3897_I',0.268080
'62_3898_I',0.353061
'62_3899_I',0.154063
'62_3900_I',0.285940
'62_3901_I',0.384226
'62_3902_I',0.305025
'62_3903_I',0.180435
'62_3904_I',0.399199
'62_3905_I',0.307962
'62_3906_I',0.050838
'62_3907_I',0.318034
'62_3908_I',0.169165
'62_3909_I',0.240620
'62_3910_I',0.316394
'62_3911_I',0.155233
'62_3912_I',0.040203
'62_3913_I',0.349857
'62_3914_I',0.310272
'62_3915_I',0.179572
'62_3916_I',0.268097
'62_3917_I',0.140247
'62_3918_I',0.181289
'62_3919_I',0.151544
'62_3920_I',0.127436
'62_3921_I',0.190596
'62_3922_I',0.028160
'62_3923_I',0.118112
'62_3924_I',0.168989
'62_3925_I',0.315603
'62_3926_I',0.009272
'62_3927_I',0.172296
'62_3928_I',0.177453
'62_3929_I',-0.079053
'62_3930_I',0.143838
'62_3931_I',0.184965
'62_3932_I',0.149939
'62_3933_I',0.076806
'62_3934_I',0.112635
'62_3935_I',0.090396
'62_3936_I',-0.101444
'62_3937_I',0.080915
'62_3938_I',0.018948
'62_3939_I',-0.020763
'62_3940_I',0.292273
'62_3941_I',0.163089
'62_3942_I',-0.083144
'62_3943_I',0.060577
'62_3944_I',0.165754
'62_3945_I',-0.135635
'62_3946_I',0.015716
'62_3947_I',0.014456
'62_3948_I',-0.131369
'62_3949_I',0.028067
'62_3950_I',0.095769
'62_3951_I',0.128985
'62_3952_I',-0.052718
'62_3953_I',0.216425
'62_3954_I',-0.245489
'62_3955_I',-0.010018
'62_3956_I',-0.192810
'62_3957_I',-0.048496
'62_3958_I',-0.115630
'62_3959_I',-0.018668
'62_3960_I',-0.087950
'62_3961_I',-0.163756
'62_3962_I',-0.163070
'62_3963_I',0.100333
'62_3964_I',-0.054419
'62_3965_I',-0.274828
'62_3966_I',-0.055366
'62_3967_I',-0.135726
'62_3968_I',-0.121595
'62_3969_I',-0.045846
'62_3970_I',-0.015274
'62_3971_I',-0.225220
'62_3972_I',-0.148035
'62_3973_I',-0.205374
'62_3974_I',-0.096757
'62_3975_I',-0.185332
'62_3976_I',-0.164811
'62_3977_I',-0.200375
'62_3978_I',-0.189546
'62_3979_I',-0.014030
'62_3980_I',0.049047
'62_3981_I',-0.157828
'62_3982_I',-0.211014
'62_3983_I',-0.366031
'62_3984_I',-0.287931
'62_3985_I',-0.229954
'62_3986_I',-0.294147
'62_3987_I',-0.288960
'62_3988_I',-0.075727
'62_3989_I',-0.235649
'62_3990_I',-0.231936
'62_3991_I',-0.316371
'62_3992_I',-0.136356
'62_3993_I',-0.280491
'62_3994_I',-0.316405
'62_3995_I',-0.427441
'62_3996_I',-0.280486
'62_3997_I',-0.334552
'62_3998_I',-0.115819
'62_3999_I',-0.104777
'62_4000_I',-0.417544
'62_4001_I',-0.411038
'62_4002_I',-0.331219
'62_4003_I',-0.389912
'62_4004_I',-0.291243
'62_4005_I',-0.350280
'62_4006_I',-0.294152
'62_4007_I',-0.225137
'62_4008_I',-0.437663
'62_4009_I',-0.236168
'62_4010_I',-0.412954
'62_4011_I',-0.129591
'62_4012_I',-0.186644
'62_4013_I',-0.364302
'62_4014_I',-0.453555
'62_4015_I',-0.476834
'62_4016_I',-0.278085
'62_4017_I',-0.372536
'62_4018_I',-0.280804
'62_4019_I',-0.157009
'62_4020_I',-0.458358
'62_4021_I',-0.508168
'62_4022_I',-0.369677
'62_4023_I',-0.278180
'62_4024_I',-0.490369
'62_4025_I',-0.396472
'62_4026_I',-0.266484
'62_4027_I',-0.570272
'62_4028_I',-0.386891
'62_4029_I',-0.467813
'62_4030_I',-0.404708
'62_4031_I',-0.349407
'62_4032_I',-0.401506
'62_4033_I',-0.527750
'62_4034_I',-0.479933
'62_4035_I',-0.290168
'62_4036_I',-0.402892
'62_4037_I',-0.354648
'62_4038_I',-0.416484
'62_4039_I',-0.363371
'62_4040_I',-0.486604
'62_4041_I',-0.526384
'62_4042_I',-0.375841
'62_4043_I',-0.341988
'62_4044_I',-0.548603
'62_4045_I',-0.517154
'62_4046_I',-0.478201
'62_4047_I',-0.302149
'62_4048_I',-0.410005
'62_4049_I',-0.600847
'62_4050_I',-0.479791
'62_4051_I',-0.497067
'62_4052_I',-0.591725
'62_4053_I',-0.486729
'62_4054_I',-0.507038
'62_4055_I',-0.515913
'62_4056_I',-0.522135
'62_4057_I',-0.335836
'62_4058_I',-0.520856
'62_4059_I',-0.480959
'62_4060_I',-0.493174
'62_4061_I',-0.539102
'62_4062_I',-0.481882
'62_4063_I',-0.484460
'62_4064_I',-0.484112
'62_4065_I',-0.579034
'62_4066_I',-0.514675
'62_4067_I',-0.418913
'62_4068_I',-0.513738
'62_4069_I',-0.480319
'62_4070_I',-0.480463
'62_4071_I',-0.456026
'62_4072_I',-0.442429
'62_4073_I',-0.516166
'62_4074_I',-0.590271
'62_4075_I',-0.621324
'62_4076_I',-0.397927
'62_4077_I',-0.422843
'62_4078_I',-0.435033
'62_4079_I',-0.418879
'62_4080_I',-0.516114
'62_4081_I',-0.562334
'62_4082_I',-0.597703
'62_4083_I',-0.608342
'62_4084_I',-0.377865
'62_4085_I',-0.547999
'62_4086_I',-0.392730
'62_4087_I',-0.516365
'62_4088_I',-0.564690
'62_4089_I',-0.605822
'62_4090_I',-0.554449
'62_4091_I',-0.352987
'62_4092_I',-0.602339
'62_4093_I',-0.281280
'62_4094_I',-0.575982
'62_4095_I',-0.415822
'62_4096_I',-0.504169
'62_4097_I',-0.520456
'62_4098_I',-0.614229
'62_4099_I',-0.495544
'62_4100_I',-0.600081
'62_4101_I',-0.650890
'62_4102_I',-0.469183
'62_4103_I',-0.543027
'62_4104_I',-0.309323
'62_4105_I',-0.375961
'62_4106_I',-0.304358
'62_4107_I',-0.540260
'62_4108_I',-0.456560
'62_4109_I',-0.730177
'62_4110_I',-0.494159
'62_4111_I',-0.453932
'62_4112_I',-0.446113
'62_4113_I',-0.463426
'62_4114_I',-0.450135
'62_4115_I',-0.725659
'62_4116_I',-0.426188
'62_4117_I',-0.400877
'62_4118_I',-0.312766
'62_4119_I',-0.406978
'62_4120_I',-0.454146
'62_4121_I',-0.327735
'62_4122_I',-0.671058
'62_4123_I',-0.483852
'62_4124_I',-0.505909
'62_4125_I',-0.429690
'62_4126_I',-0.642957
'62_4127_I',-0.287913
'62_4128_I',-0.441587
'62_4129_I',-0.381396
'62_4130_I',-0.387577
'62_4131_I',-0.280190
'62_4132_I',-0.589128
'62_4133_I',-0.388138
'62_4134_I',-0.281133
'62_4135_I',-0.401873
'62_4136_I',-0.483469
'62_4137_I',-0.444944
'62_4138_I',-0.420007
'62_4139_I',-0.448921
'62_4140_I',-0.388147
'62_4141_I',-0.218038
'62_4142_I',-0.424543
'62_4143_I',-0.409466
'62_4144_I',-0.310561
'62_4145_I',-0.369811
'62_4146_I',-0.480987
'62_4147_I',-0.349878
'62_4148_I',-0.349289
'62_4149_I',-0.237425
'62_4150_I',-0.427753
'62_4151_I',-0.227804
'62_4152_I',-0.331270
'62_4153_I',-0.427687
'62_4154_I',-0.443131
'62_4155_I',-0.114130
'62_4156_I',-0.318832
'62_4157_I',-0.204419
'62_4158_I',-0.464068
'62_4159_I',-0.024631
'62_4160_I',-0.194180
'62_4161_I',-0.304111
'62_4162_I',-0.304207
'62_4163_I',-0.195115
'62_4164_I',-0.195803
'62_4165_I',-0.240177
'62_4166_I',-0.252214
'62_4167_I',-0.192031
'62_4168_I',-0.417108
'62_4169_I',-0.274831
'62_4170_I',-0.397122
'62_4171_I',-0.166675
'62_4172_I',-0.289382
'62_4173_I',-0.373593
'62_4174_I',-0.290417
'62_4175_I',-0.190677
'62_4176_I',-0.220680
'62_4177_I',-0.311989
'62_4178_I',-0.359648
'62_4179_I',-0.176229
'62_4180_I',-0.236134
'62_4181_I',-0.198275
'62_4182_I',-0.182821
'62_4183_I',-0.118207
'62_4184_I',-0.070857
'62_4185_I',-0.135217
'62_4186_I',-0.176209
'62_4187_I',-0.135961
'62_4188_I',-0.166616
'62_4189_I',-0.291183
'62_4190_I',-0.011951
'62_4191_I',-0.025002
'62_4192_I',0.089304
'62_4193_I',0.124352
'62_4194_I',-0.215453
'62_4195_I',-0.125531
'62_4196_I',0.165037
'62_4197_I',-0.084286
'62_4198_I',-0.049913
'62_4199_I',-0.220539
'62_4200_I',-0.047479
'62_4201_I',0.136612
'62_4202_I',0.078015
'62_4203_I',-0.105704
'62_4204_I',-0.078389
'62_4205_I',-0.145893
'62_4206_I',-0.111961
'62_4207_I',-0.211904
'62_4208_I',-0.023399
'62_4209_I',0.142061
'62_4210_I',0.032562
'62_4211_I',0.139611
'62_4212_I',0.116281
'62_4213_I',-0.039757
'62_4214_I',-0.055062
'62_4215_I',-0.045268
'62_4216_I',-0.138897
'62_4217_I',0.041996
'62_4218_I',-0.245735
'62_4219_I',0.109794
'62_4220_I',0.063776
'62_4221_I',0.109658
'62_4222_I',0.174133
'62_4223_I',0.094219
'62_4224_I',0.243394
'62_4225_I',0.148317
'62_4226_I',0.016284
'62_4227_I',0.074086
'62_4228_I',-0.122426
'62_4229_I',0.019316
'62_4230_I',0.077252
'62_4231_I',0.175778
'62_4232_I',0.051897
'62_4233_I',0.008071
'62_4234_I',-0.050310
'62_4235_I',0.084527
'62_4236_I',0.344959
'62_4237_I',0.182668
'62_4238_I',0.255177
'62_4239_I',0.076852
'62_4240_I',0.015128
'62_4241_I',0.055955
'62_4242_I',0.173915
'62_4243_I',-0.010246
'62_4244_I',0.094019
'62_4245_I',0.141526
'62_4246_I',0.073525
'62_4247_I',-0.001324
'62_4248_I',0.245406
'62_4249_I',0.226393
'62_4250_I',0.305042
'62_4251_I',0.121398
'62_4252_I',0.313701
'62_4253_I',0.395873
'62_4254_I',0.274364
'62_4255_I',0.192313
'62_4256_I',0.272943
'62_4257_I',0.197748
'62_4258_I',0.186152
'62_4259_I',0.341922
'62_4260_I',0.264667
'62_4261_I',0.404019
'62_4262_I',0.244163
'62_4263_I',0.259143
'62_4264_I',0.241423
'62_4265_I',0.190827
'62_4266_I',0.389016
'62_4267_I',0.530829
'62_4268_I',0.278674
'62_4269_I',0.253442
'62_4270_I',0.251508
'62_4271_I',0.262569
'62_4272_I',0.499975
'62_4273_I',0.267556
'62_4274_I',0.285236
'62_4275_I',0.224038
'62_4276_I',0.381698
'62_4277_I',0.349820
'62_4278_I',0.246985
'62_4279_I',0.275528
'62_4280_I',0.522160
'62_4281_I',0.376140
'62_4282_I',0.386988
'62_4283_I',0.391282
'62_4284_I',0.524021
'62_4285_I',0.283824
'62_4286_I',0.352438
'62_4287_I',0.378858
'62_4288_I',0.227256
'62_4289_I',0.311322
'62_4290_I',0.511110
'62_4291_I',0.485911
'62_4292_I',0.506985
'62_4293_I',0.357700
'62_4294_I',0.373310
'62_4295_I',0.244284
'62_4296_I',0.519435
'62_4297_I',0.538996
'62_4298_I',0.540752
'62_4299_I',0.595736
'62_4300_I',0.480443
'62_4301_I',0.596763
'62_4302_I',0.423807
'62_4303_I',0.269870
'62_4304_I',0.535296
'62_4305_I',0.271424
'62_4306_I',0.471357
'62_4307_I',0.552329
'62_4308_I',0.491617
'62_4309_I',0.689345
'62_4310_I',0.267191
'62_4311_I',0.457695
'62_4312_I',0.469857
'62_4313_I',0.335766
'62_4314_I',0.356800
'62_4315_I',0.389590
'62_4316_I',0.366001
'62_4317_I',0.466960
'62_4318_I',0.419190
'62_4319_I',0.512935
'62_4320_I',0.547677
'62_4321_I',0.542432
'62_4322_I',0.444693
'62_4323_I',0.515536
'62_4324_I',0.591914
'62_4325_I',0.534201
'62_4326_I',0.676716
'62_4327_I',0.590140
'62_4328_I',0.664796
'62_4329_I',0.244685
'62_4330_I',0.504479
'62_4331_I',0.463241
'62_4332_I',0.483888
'62_4333_I',0.416571
'62_4334_I',0.537297
'62_4335_I',0.317381
'62_4336_I',0.539028
'62_4337_I',0.421911
'62_4338_I',0.449369
'62_4339_I',0.543513
'62_4340_I',0.507724
'62_4341_I',0.605351
'62_4342_I',0.403049
'62_4343_I',0.491899
'62_4344_I',0.588746
'62_4345_I',0.535816
'62_4346_I',0.542011
'62_4347_I',0.609941
'62_4348_I',0.458127
'62_4349_I',0.436611
'62_4350_I',0.555356
'62_4351_I',0.482223
'62_4352_I',0.608717
'62_4353_I',0.532733
'62_4354_I',0.432609
'62_4355_I',0.527900
'62_4356_I',0.402840
'62_4357_I',0.586780
'62_4358_I',0.351279
'62_4359_I',0.612038
'62_4360_I',0.520687
'62_4361_I',0.470841
'62_4362_I',0.562258
'62_4363_I',0.535617
'62_4364_I',0.616012
'62_4365_I',0.613502
'62_4366_I',0.514977
'62_4367_I',0.390855
'62_4368_I',0.422097
'62_4369_I',0.467232
'62_4370_I',0.580649
'62_4371_I',0.424852
'62_4372_I',0.431143
'62_4373_I',0.651151
'62_4374_I',0.453699
'62_4375_I',0.398403
'62_4376_I',0.537222
'62_4377_I',0.451559
'62_4378_I',0.315763
'62_4379_I',0.556300
'62_4380_I',0.374926
'62_4381_I',0.451345
'62_4382_I',0.437466
'62_4383_I',0.464520
'62_4384_I',0.219570
'62_4385_I',0.402272
'62_4386_I',0.545308
'62_4387_I',0.556350
'62_4388_I',0.327596
'62_4389_I',0.515643
'62_4390_I',0.344239
'62_4391_I',0.379667
'62_4392_I',0.381601
'62_4393_I',0.421300
'62_4394_I',0.507118
'62_4395_I',0.429943
'62_4396_I',0.387317
'62_4397_I',0.493051
'62_4398_I',0.312386
'62_4399_I',0.381207
'62_4400_I',0.484728
'62_4401_I',0.434247
'62_4402_I',0.330798
'62_4403_I',0.222191
'62_4404_I',0.400577
'62_4405_I',0.207576
'62_4406_I',0.340094
'62_4407_I',0.475087
'62_4408_I',0.412666
'62_4409_I',0.146372
'62_4410_I',0.364481
'62_4411_I',0.308167
'62_4412_I',0.208313
'62_4413_I',0.364739
'62_4414_I',0.277568
'62_4415_I',0.273647
'62_4416_I',0.330018
'62_4417_I',0.250392
'62_4418_I',0.317877
'62_4419_I',0.244250
'62_4420_I',0.244972
'62_4421_I',0.393304
'62_4422_I',0.398629
'62_4423_I',0.113406
'62_4424_I',0.354049
'62_4425_I',0.414230
'62_4426_I',0.425099
'62_4427_I',0.316351
'62_4428_I',0.153488
'62_4429_I',0.317103
'62_4430_I',0.162021
'62_4431_I',0.209456
'62_4432_I',0.276832
'62_4433_I',0.152784
'62_4434_I',0.113324
'62_4435_I',0.269213
'62_4436_I',0.403998
'62_4437_I',0.336207
'62_4438_I',0.277181
'62_4439_I',0.298930
'62_4440_I',0.259303
'62_4441_I',0.235014
'62_4442_I',0.274351
'62_4443_I',0.042092
'62_4444_I',0.193291
'62_4445_I',0.159636
'62_4446_I',0.169986
'62_4447_I',0.110301
'62_4448_I',0.202806
'62_4449_I',0.063263
'62_4450_I',0.085948
'62_4451_I',0.068203
'62_4452_I',0.214224
'62_4453_I',0.120877
'62_4454_I',0.070169
'62_4455_I',0.073096
'62_4456_I',0.104998
'62_4457_I',0.260983
'62_4458_I',-0.030745
'62_4459_I',0.154586
'62_4460_I',0.128338
'62_4461_I',-0.013041
'62_4462_I',0.216037
'62_4463_I',0.117361
'62_4464_I',0.006735
'62_4465_I',-0.134367
'62_4466_I',0.068549
'62_4467_I',0.035212
'62_4468_I',-0.069338
'62_4469_I',-0.076585
'62_4470_I',0.108665
'62_4471_I',-0.179720
'62_4472_I',0.041311
'62_4473_I',-0.014830
'62_4474_I',0.047660
'62_4475_I',-0.037454
'62_4476_I',0.015336
'62_4477_I',-0.094234
'62_4478_I',-0.030840
'62_4479_I',0.017030
'62_4480_I',-0.022746
'62_4481_I',-0.005752
'62_4482_I',-0.142517
'62_4483_I',-0.114728
'62_4484_I',-0.118923
'62_4485_I',-0.095157
'62_4486_I',0.062441
'62_4487_I',-0.114734
'62_4488_I',-0.199560
'62_4489_I',-0.036915
'62_4490_I',0.037722
'62_4491_I',-0.228912
'62_4492_I',0.088656
'62_4493_I',-0.072926
'62_4494_I',-0.016857
'62_4495_I',0.020676
'62_4496_I',-0.034537
'62_4497_I',-0.148600
'62_4498_I',-0.021506
'62_4499_I',-0.123524
'62_4500_I',-0.045623
'62_4501_I',-0.040349
'62_4502_I',-0.275068
'62_4503_I',-0.092167
'62_4504_I',-0.195381
'62_4505_I',-0.168941
'62_4506_I',-0.175594
'62_4507_I',-0.185122
'62_4508_I',-0.046955
'62_4509_I',-0.341412
'62_4510_I',-0.382433
'62_4511_I',-0.408928
'62_4512_I',-0.114055
'62_4513_I',-0.303652
'62_4514_I',-0.218396
'62_4515_I',-0.248360
'62_4516_I',-0.330765
'62_4517_I',-0.162185
'62_4518_I',-0.265249
'62_4519_I',-0.281410
'62_4520_I',-0.239446
'62_4521_I',-0.195716
'62_4522_I',-0.368712
'62_4523_I',-0.190506
'62_4524_I',-0.137755
'62_4525_I',-0.430256
'62_4526_I',-0.264675
'62_4527_I',-0.327817
'62_4528_I',-0.232180
'62_4529_I',-0.428504
'62_4530_I',-0.148635
'62_4531_I',-0.476965
'62_4532_I',-0.345205
'62_4533_I',-0.281903
'62_4534_I',-0.398475
'62_4535_I',-0.418644
'62_4536_I',-0.316495
'62_4537_I',-0.335309
'62_4538_I',-0.346809
'62_4539_I',-0.265802
'62_4540_I',-0.395336
'62_4541_I',-0.328097
'62_4542_I',-0.414832
'62_4543_I',-0.453169
'62_4544_I',-0.400724
'62_4545_I',-0.426083
'62_4546_I',-0.424992
'62_4547_I',-0.267429
'62_4548_I',-0.413168
'62_4549_I',-0.457789
'62_4550_I',-0.392376
'62_4551_I',-0.388389
'62_4552_I',-0.521072
'62_4553_I',-0.435739
'62_4554_I',-0.443223
'62_4555_I',-0.429967
'62_4556_I',-0.343540
'62_4557_I',-0.405705
'62_4558_I',-0.299799
'62_4559_I',-0.426919
'62_4560_I',-0.251244
'62_4561_I',-0.477968
'62_4562_I',-0.511824
'62_4563_I',-0.383052
'62_4564_I',-0.304227
'62_4565_I',-0.581305
'62_4566_I',-0.465850
'62_4567_I',-0.509892
'62_4568_I',-0.437127
'62_4569_I',-0.452945
'62_4570_I',-0.321879
'62_4571_I',-0.469662
'62_4572_I',-0.323682
'62_4573_I',-0.494945
'62_4574_I',-0.372994
'62_4575_I',-0.444917
'62_4576_I',-0.296869
'62_4577_I',-0.619567
'62_4578_I',-0.590192
'62_4579_I',-0.292517
'62_4580_I',-0.550810
'62_4581_I',-0.546201
'62_4582_I',-0.568462
'62_4583_I',-0.367645
'62_4584_I',-0.609367
'62_4585_I',-0.483239
'62_4586_I',-0.513439
'62_4587_I',-0.384549
'62_4588_I',-0.545823
'62_4589_I',-0.449112
'62_4590_I',-0.608876
'62_4591_I',-0.265405
'62_4592_I',-0.517732
'62_4593_I',-0.493801
'62_4594_I',-0.330035
'62_4595_I',-0.554940
'62_4596_I',-0.330227
'62_4597_I',-0.538734
'62_4598_I',-0.430967
'62_4599_I',-0.555884
'62_4600_I',-0.634628
'62_4601_I',-0.457902
'62_4602_I',-0.435637
'62_4603_I',-0.631411
'62_4604_I',-0.530652
'62_4605_I',-0.379922
'62_4606_I',-0.439967
'62_4607_I',-0.539410
'62_4608_I',-0.559480
'62_4609_I',-0.304670
'62_4610_I',-0.643884
'62_4611_I',-0.504736
'62_4612_I',-0.644839
'62_4613_I',-0.366371
'62_4614_I',-0.497977
'62_4615_I',-0.478788
'62_4616_I',-0.218987
'62_4617_I',-0.554423
'62_4618_I',-0.319347
'62_4619_I',-0.532336
'62_4620_I',-0.515603
'62_4621_I',-0.227352
'62_4622_I',-0.506127
'62_4623_I',-0.626233
'62_4624_I',-0.459313
'62_4625_I',-0.503418
'62_4626_I',-0.448004
'62_4627_I',-0.496574
'62_4628_I',-0.260092
'62_4629_I',-0.424336
'62_4630_I',-0.585801
'62_4631_I',-0.464077
'62_4632_I',-0.554653
'62_4633_I',-0.497553
'62_4634_I',-0.561849
'62_4635_I',-0.258050
'62_4636_I',-0.535790
'62_4637_I',-0.395719
'62_4638_I',-0.494580
'62_4639_I',-0.575765
'62_4640_I',-0.437785
'62_4641_I',-0.415041
'62_4642_I',-0.396743
'62_4643_I',-0.712259
'62_4644_I',-0.570889
'62_4645_I',-0.348952
'62_4646_I',-0.534308
'62_4647_I',-0.418830
'62_4648_I',-0.562041
'62_4649_I',-0.360130
'62_4650_I',-0.337154
'62_4651_I',-0.354019
'62_4652_I',-0.320823
'62_4653_I',-0.264496
'62_4654_I',-0.535041
'62_4655_I',-0.493189
'62_4656_I',-0.321197
'62_4657_I',-0.294500
'62_4658_I',-0.471469
'62_4659_I',-0.474878
'62_4660_I',-0.462109
'62_4661_I',-0.553738
'62_4662_I',-0.516655
'62_4663_I',-0.510473
'62_4664_I',-0.411329
'62_4665_I',-0.350956
'62_4666_I',-0.330758
'62_4667_I',-0.420975
'62_4668_I',-0.414478
'62_4669_I',-0.349621
'62_4670_I',-0.507446
'62_4671_I',-0.257706
'62_4672_I',-0.220867
'62_4673_I',-0.407669
'62_4674_I',-0.380611
'62_4675_I',-0.212044
'62_4676_I',-0.344240
'62_4677_I',-0.268623
'62_4678_I',-0.332143
'62_4679_I',-0.162702
'62_4680_I',-0.264699
'62_4681_I',-0.254271
'62_4682_I',-0.247692
'62_4683_I',-0.355076
'62_4684_I',-0.341088
'62_4685_I',-0.212998
'62_4686_I',-0.272397
'62_4687_I',-0.397875
'62_4688_I',-0.087839
'62_4689_I',-0.172339
'62_4690_I',-0.261342
'62_4691_I',-0.287375
'62_4692_I',-0.235040
'62_4693_I',-0.198003
'62_4694_I',-0.447866
'62_4695_I',-0.028108
'62_4696_I',-0.313073
'62_4697_I',-0.228984
'62_4698_I',-0.219983
'62_4699_I',-0.018430
'62_4700_I',-0.221540
'62_4701_I',-0.048460
'62_4702_I',-0.161192
'62_4703_I',-0.292578
'62_4704_I',-0.177415
'62_4705_I',-0.197207
'62_4706_I',-0.288206
'62_4707_I',-0.138444
'62_4708_I',-0.166399
'62_4709_I',-0.107336
'62_4710_I',-0.137988
'62_4711_I',-0.216757
'62_4712_I',-0.069114
'62_4713_I',-0.202668
'62_4714_I',-0.444456
'62_4715_I',-0.115865
'62_4716_I',-0.178361
'62_4717_I',-0.078946
'62_4718_I',0.088539
'62_4719_I',0.097253
'62_4720_I',-0.116192
'62_4721_I',-0.176475
'62_4722_I',-0.029485
'62_4723_I',-0.119094
'62_4724_I',-0.037000
'62_4725_I',-0.136359
'62_4726_I',-0.039289
'62_4727_I',-0.139632
'62_4728_I',0.065923
'62_4729_I',-0.105560
'62_4730_I',0.025494
'62_4731_I',-0.161141
'62_4732_I',0.049410
'62_4733_I',-0.119384
'62_4734_I',0.009336
'62_4735_I',0.091505
'62_4736_I',-0.024845
'62_4737_I',-0.101794
'62_4738_I',0.056773
'62_4739_I',-0.071039
'62_4740_I',-0.021399
'62_4741_I',0.051535
'62_4742_I',0.167016
'62_4743_I',0.039559
'62_4744_I',0.045139
'62_4745_I',0.122549
'62_4746_I',0.059771
'62_4747_I',0.124216
'62_4748_I',0.174437
'62_4749_I',0.039721
'62_4750_I',-0.249106
'62_4751_I',0.002492
'62_4752_I',0.211031
'62_4753_I',0.092651
'62_4754_I',0.067965
'62_4755_I',0.224393
'62_4756_I',0.103403
'62_4757_I',-0.089913
'62_4758_I',-0.025402
'62_4759_I',0.172763
'62_4760_I',0.129961
'62_4761_I',0.287848
'62_4762_I',0.074767
'62_4763_I',0.122834
'62_4764_I',0.071002
'62_4765_I',0.113039
'62_4766_I',-0.018469
'62_4767_I',0.137751
'62_4768_I',0.176705
'62_4769_I',0.173806
'62_4770_I',0.407915
'62_4771_I',0.381800
'62_4772_I',0.128827
'62_4773_I',0.004958
'62_4774_I',0.204838
'62_4775_I',0.257784
'62_4776_I',0.139428
'62_4777_I',0.149690
'62_4778_I',0.394322
'62_4779_I',0.215556
'62_4780_I',0.312747
'62_4781_I',0.158667
'62_4782_I',0.251143
'62_4783_I',0.228306
'62_4784_I',0.199468
'62_4785_I',0.387563
'62_4786_I',0.138134
'62_4787_I',0.311977
'62_4788_I',0.251368
'62_4789_I',0.333231
'62_4790_I',0.262417
'62_4791_I',0.388079
'62_4792_I',0.212131
'62_4793_I',0.426554
'62_4794_I',0.312572
'62_4795_I',0.187211
'62_4796_I',0.392645
'62_4797_I',0.309255
'62_4798_I',0.162826
'62_4799_I',0.371279
'62_4800_I',0.443066
'62_4801_I',0.474945
'62_4802_I',0.313172
'62_4803_I',0.369765
'62_4804_I',0.364462
'62_4805_I',0.512513
'62_4806_I',0.286556
'62_4807_I',0.325159
'62_4808_I',0.292119
'62_4809_I',0.234590
'62_4810_I',0.408143
'62_4811_I',0.547298
'62_4812_I',0.371069
'62_4813_I',0.306422
'62_4814_I',0.416935
'62_4815_I',0.460741
'62_4816_I',0.389717
'62_4817_I',0.549172
'62_4818_I',0.330990
'62_4819_I',0.386878
'62_4820_I',0.448463
'62_4821_I',0.461390
'62_4822_I',0.429986
'62_4823_I',0.300530
'62_4824_I',0.665221
'62_4825_I',0.410810
'62_4826_I',0.448358
'62_4827_I',0.501869
'62_4828_I',0.379342
'62_4829_I',0.451422
'62_4830_I',0.380683
'62_4831_I',0.492566
'62_4832_I',0.425953
'62_4833_I',0.482907
'62_4834_I',0.353796
'62_4835_I',0.377908
'62_4836_I',0.326570
'62_4837_I',0.394249
'62_4838_I',0.210101
'62_4839_I',0.438828
'62_4840_I',0.418132
'62_4841_I',0.488598
'62_4842_I',0.479852
'62_4843_I',0.602914
'62_4844_I',0.738385
'62_4845_I',0.594387
'62_4846_I',0.436934
'62_4847_I',0.434447
'62_4848_I',0.572126
'62_4849_I',0.318329
'62_4850_I',0.456478
'62_4851_I',0.465448
'62_4852_I',0.548872
'62_4853_I',0.552971
'62_4854_I',0.418184
'62_4855_I',0.452188
'62_4856_I',0.539051
'62_4857_I',0.415493
'62_4858_I',0.616770
'62_4859_I',0.557779
'62_4860_I',0.514645
'62_4861_I',0.537149
'62_4862_I',0.451857
'62_4863_I',0.436336
'62_4864_I',0.456841
'62_4865_I',0.549587
'62_4866_I',0.519898
'62_4867_I',0.457660
'62_4868_I',0.574953
'62_4869_I',0.482592
'62_4870_I',0.430577
'62_4871_I',0.525191
'62_4872_I',0.398233
'62_4873_I',0.330521
'62_4874_I',0.498369
'62_4875_I',0.432703
'62_4876_I',0.472523
'62_4877_I',0.400688
'62_4878_I',0.617606
'62_4879_I',0.429845
'62_4880_I',0.452005
'62_4881_I',0.532134
'62_4882_I',0.355753
'62_4883_I',0.347359
'62_4884_I',0.529438
'62_4885_I',0.445708
'62_4886_I',0.398842
'62_4887_I',0.548048
'62_4888_I',0.405169
'62_4889_I',0.457491
'62_4890_I',0.393840
'62_4891_I',0.512240
'62_4892_I',0.613478
'62_4893_I',0.292472
'62_4894_I',0.488079
'62_4895_I',0.560641
'62_4896_I',0.430936
'62_4897_I',0.358014
'62_4898_I',0.511182
'62_4899_I',0.567151
'62_4900_I',0.553872
'62_4901_I',0.499178
'62_4902_I',0.470080
'62_4903_I',0.368023
'62_4904_I',0.542020
'62_4905_I',0.533997
'62_4906_I',0.336637
'62_4907_I',0.484267
'62_4908_I',0.510415
'62_4909_I',0.530594
'62_4910_I',0.432070
'62_4911_I',0.350937
'62_4912_I',0.383544
'62_4913_I',0.330030
'62_4914_I',0.422588
'62_4915_I',0.399883
'62_4916_I',0.635892
'62_4917_I',0.507614
'62_4918_I',0.511798
'62_4919_I',0.458617
'62_4920_I',0.371330
'62_4921_I',0.377044
'62_4922_I',0.382660
'62_4923_I',0.416277
'62_4924_I',0.432721
'62_4925_I',0.390169
'62_4926_I',0.357277
'62_4927_I',0.323108
'62_4928_I',0.239384
'62_4929_I',0.503062
'62_4930_I',0.591298
'62_4931_I',0.486648
'62_4932_I',0.236724
'62_4933_I',0.437197
'62_4934_I',0.456686
'62_4935_I',0.309728
'62_4936_I',0.394678
'62_4937_I',0.295819
'62_4938_I',0.489957
'62_4939_I',0.369168
'62_4940_I',0.236436
'62_4941_I',0.390605
'62_4942_I',0.424929
'62_4943_I',0.334246
'62_4944_I',0.357714
'62_4945_I',0.298087
'62_4946_I',0.186883
'62_4947_I',0.280344
'62_4948_I',0.342985
'62_4949_I',0.273001
'62_4950_I',0.360963
'62_4951_I',0.236710
'62_4952_I',0.238272
'62_4953_I',0.349007
'62_4954_I',0.283006
'62_4955_I',0.214538
'62_4956_I',0.353943
'62_4957_I',0.176505
'62_4958_I',0.167466
'62_4959_I',-0.048036
'62_4960_I',0.174226
'62_4961_I',0.355176
'62_4962_I',0.011724
'62_4963_I',0.118379
'62_4964_I',0.252066
'62_4965_I',-0.021769
'62_4966_I',0.146177
'62_4967_I',0.305834
'62_4968_I',0.390524
'62_4969_I',0.209693
'62_4970_I',0.082444
'62_4971_I',0.073474
'62_4972_I',0.178350
'62_4973_I',0.186305
'62_4974_I',0.338328
'62_4975_I',0.243920
'62_4976_I',0.149534
'62_4977_I',0.101866
'62_4978_I',0.431103
'62_4979_I',0.186517
'62_4980_I',0.051190
'62_4981_I',0.089795
'62_4982_I',0.018687
'62_4983_I',-0.139862
'62_4984_I',0.126004
'62_4985_I',0.267117
'62_4986_I',-0.080065
'62_4987_I',0.082625
'62_4988_I',0.000505
'62_4989_I',0.117433
'62_4990_I',0.042127
'62_4991_I',-0.082576
'62_4992_I',-0.050620
'62_4993_I',-0.041485
'62_4994_I',0.170026
'62_4995_I',0.158964
'62_4996_I',-0.007457
'62_4997_I',0.140494
'62_4998_I',-0.005571
'62_4999_I',-0.026887
'62_0_II',0.159832
'62_1_II',0.080846
'62_2_II',0.015858
'62_3_II',-0.001303
'62_4_II',0.037607
'62_5_II',-0.013756
'62_6_II',-0.165589
'62_7_II',0.256559
'62_8_II',0.075318
'62_9_II',0.107030
'62_10_II',0.068840
'62_11_II',0.008518
'62_12_II',0.070817
'62_13_II',-0.063170
'62_14_II',0.331816
'62_15_II',-0.012029
'62_16_II',0.015516
'62_17_II',0.081950
'62_18_II',0.262018
'62_19_II',0.141867
'62_20_II',0.023976
'62_21_II',0.280164
'62_22_II',0.234936
'62_23_II',0.222749
'62_24_II',0.247510
'62_25_II',0.422365
'62_26_II',0.408389
'62_27_II',0.128116
'62_28_II',0.366040
'62_29_II',0.248787
'62_30_II',0.267151
'62_31_II',0.054737
'62_32_II',0.213597
'62_33_II',0.155974
'62_34_II',0.326629
'62_35_II',0.357444
'62_36_II',0.049344
'62_37_II',0.260987
'62_38_II',0.381716
'62_39_II',0.257141
'62_40_II',0.354933
'62_41_II',0.323297
'62_42_II',0.328435
'62_43_II',0.273161
'62_44_II',0.184590
'62_45_II',0.199982
'62_46_II',0.388887
'62_47_II',0.325643
'62_48_II',0.315519
'62_49_II',0.292580
'62_50_II',0.309974
'62_51_II',0.450631
'62_52_II',0.317785
'62_53_II',0.222494
'62_54_II',0.436176
'62_55_II',0.346453
'62_56_II',0.375127
'62_57_II',0.537709
'62_58_II',0.379774
'62_59_II',0.415542
'62_60_II',0.273438
'62_61_II',0.373982
'62_62_II',0.461431
'62_63_II',0.249381
'62_64_II',0.429352
'62_65_II',0.423604
'62_66_II',0.421818
'62_67_II',0.525476
'62_68_II',0.459180
'62_69_II',0.577423
'62_70_II',0.334041
'62_71_II',0.450679
'62_72_II',0.449122
'62_73_II',0.337240
'62_74_II',0.543185
'62_75_II',0.683312
'62_76_II',0.452332
'62_77_II',0.507621
'62_78_II',0.468555
'62_79_II',0.391625
'62_80_II',0.283684
'62_81_II',0.397855
'62_82_II',0.331803
'62_83_II',0.643871
'62_84_II',0.464304
'62_85_II',0.443471
'62_86_II',0.569119
'62_87_II',0.370062
'62_88_II',0.407475
'62_89_II',0.492785
'62_90_II',0.590562
'62_91_II',0.539451
'62_92_II',0.515603
'62_93_II',0.499960
'62_94_II',0.533439
'62_95_II',0.514737
'62_96_II',0.392619
'62_97_II',0.501159
'62_98_II',0.390004
'62_99_II',0.506193
'62_100_II',0.450619
'62_101_II',0.753109
'62_102_II',0.495557
'62_103_II',0.359385
'62_104_II',0.486542
'62_105_II',0.551935
'62_106_II',0.667261
'62_107_II',0.440794
'62_108_II',0.341199
'62_109_II',0.580715
'62_110_II',0.360449
'62_111_II',0.454260
'62_112_II',0.471368
'62_113_II',0.489309
'62_114_II',0.564220
'62_115_II',0.425860
'62_116_II',0.465660
'62_117_II',0.490304
'62_118_II',0.505279
'62_119_II',0.498581
'62_120_II',0.530767
'62_121_II',0.569809
'62_122_II',0.522839
'62_123_II',0.526975
'62_124_II',0.321328
'62_125_II',0.482399
'62_126_II',0.523045
'62_127_II',0.545601
'62_128_II',0.400978
'62_129_II',0.401709
'62_130_II',0.407498
'62_131_II',0.515741
'62_132_II',0.562575
'62_133_II',0.415425
'62_134_II',0.543849
'62_135_II',0.462181
'62_136_II',0.434084
'62_137_II',0.421953
'62_138_II',0.514232
'62_139_II',0.468509
'62_140_II',0.659817
'62_141_II',0.343198
'62_142_II',0.476321
'62_143_II',0.367585
'62_144_II',0.329476
'62_145_II',0.411125
'62_146_II',0.421661
'62_147_II',0.695366
'62_148_II',0.380666
'62_149_II',0.281505
'62_150_II',0.417178
'62_151_II',0.177679
'62_152_II',0.371127
'62_153_II',0.377020
'62_154_II',0.449888
'62_155_II',0.462717
'62_156_II',0.309843
'62_157_II',0.339903
'62_158_II',0.273037
'62_159_II',0.231449
'62_160_II',0.369773
'62_161_II',0.205878
'62_162_II',0.286152
'62_163_II',0.222402
'62_164_II',0.371120
'62_165_II',0.490456
'62_166_II',0.174245
'62_167_II',0.113126
'62_168_II',0.279895
'62_169_II',0.287844
'62_170_II',0.301967
'62_171_II',0.229232
'62_172_II',0.247502
'62_173_II',0.297959
'62_174_II',0.358835
'62_175_II',0.052813
'62_176_II',0.204894
'62_177_II',0.256585
'62_178_II',0.136770
'62_179_II',0.394997
'62_180_II',0.151601
'62_181_II',0.204227
'62_182_II',0.257126
'62_183_II',0.135517
'62_184_II',0.003066
'62_185_II',0.137894
'62_186_II',0.276699
'62_187_II',0.133022
'62_188_II',0.074988
'62_189_II',0.245082
'62_190_II',0.112286
'62_191_II',0.087164
'62_192_II',0.145911
'62_193_II',0.200796
'62_194_II',0.354621
'62_195_II',0.191875
'62_196_II',0.217813
'62_197_II',0.043888
'62_198_II',-0.015469
'62_199_II',0.085965
'62_200_II',0.083045
'62_201_II',-0.042943
'62_202_II',0.039944
'62_203_II',0.089957
'62_204_II',0.078606
'62_205_II',0.085527
'62_206_II',0.056719
'62_207_II',-0.030561
'62_208_II',-0.038737
'62_209_II',-0.114732
'62_210_II',0.176149
'62_211_II',-0.008474
'62_212_II',-0.039792
'62_213_II',-0.117670
'62_214_II',0.261296
'62_215_II',-0.147074
'62_216_II',-0.090089
'62_217_II',-0.013072
'62_218_II',-0.002075
'62_219_II',0.026271
'62_220_II',0.103829
'62_221_II',-0.033709
'62_222_II',-0.197302
'62_223_II',-0.124747
'62_224_II',-0.075600
'62_225_II',0.093132
'62_226_II',-0.260753
'62_227_II',-0.007970
'62_228_II',-0.117462
'62_229_II',-0.058866
'62_230_II',-0.160012
'62_231_II',-0.241185
'62_232_II',-0.088949
'62_233_II',-0.105651
'62_234_II',-0.080908
'62_235_II',-0.186424
'62_236_II',-0.252013
'62_237_II',-0.354805
'62_238_II',-0.123839
'62_239_II',-0.170191
'62_240_II',-0.315914
'62_241_II',-0.279900
'62_242_II',-0.279375
'62_243_II',-0.387602
'62_244_II',-0.327622
'62_245_II',-0.365732
'62_246_II',-0.300035
'62_247_II',-0.339037
'62_248_II',-0.434189
'62_249_II',-0.075489
'62_250_II',-0.158692
'62_251_II',-0.367981
'62_252_II',-0.268906
'62_253_II',-0.260404
'62_254_II',-0.188976
'62_255_II',-0.395811
'62_256_II',-0.210534
'62_257_II',-0.380259
'62_258_II',-0.464704
'62_259_II',-0.264280
'62_260_II',-0.213118
'62_261_II',-0.088826
'62_262_II',-0.472935
'62_263_II',-0.288336
'62_264_II',-0.404394
'62_265_II',-0.290182
'62_266_II',-0.520588
'62_267_II',-0.504754
'62_268_II',-0.460917
'62_269_II',-0.380199
'62_270_II',-0.456883
'62_271_II',-0.331461
'62_272_II',-0.299179
'62_273_II',-0.346322
'62_274_II',-0.248722
'62_275_II',-0.373246
'62_276_II',-0.540654
'62_277_II',-0.286668
'62_278_II',-0.487468
'62_279_II',-0.339761
'62_280_II',-0.277183
'62_281_II',-0.392544
'62_282_II',-0.591387
'62_283_II',-0.537051
'62_284_II',-0.316314
'62_285_II',-0.468759
'62_286_II',-0.447046
'62_287_II',-0.382175
'62_288_II',-0.391377
'62_289_II',-0.435978
'62_290_II',-0.487469
'62_291_II',-0.500508
'62_292_II',-0.385985
'62_293_II',-0.418847
'62_294_II',-0.502255
'62_295_II',-0.370529
'62_296_II',-0.493751
'62_297_II',-0.568013
'62_298_II',-0.560635
'62_299_II',-0.584394
'62_300_II',-0.515434
'62_301_II',-0.366384
'62_302_II',-0.571720
'62_303_II',-0.473706
'62_304_II',-0.559455
'62_305_II',-0.520939
'62_306_II',-0.646923
'62_307_II',-0.518872
'62_308_II',-0.516977
'62_309_II',-0.444254
'62_310_II',-0.476519
'62_311_II',-0.619139
'62_312_II',-0.391220
'62_313_II',-0.478838
'62_314_II',-0.480145
'62_315_II',-0.500906
'62_316_II',-0.551655
'62_317_II',-0.477879
'62_318_II',-0.451767
'62_319_II',-0.673571
'62_320_II',-0.552200
'62_321_II',-0.523150
'62_322_II',-0.471258
'62_323_II',-0.376652
'62_324_II',-0.572154
'62_325_II',-0.543662
'62_326_II',-0.543894
'62_327_II',-0.571457
'62_328_II',-0.524577
'62_329_II',-0.411222
'62_330_II',-0.592020
'62_331_II',-0.442081
'62_332_II',-0.653168
'62_333_II',-0.537120
'62_334_II',-0.511835
'62_335_II',-0.309193
'62_336_II',-0.501844
'62_337_II',-0.692067
'62_338_II',-0.669305
'62_339_II',-0.463381
'62_340_II',-0.402669
'62_341_II',-0.423660
'62_342_II',-0.441504
'62_343_II',-0.338987
'62_344_II',-0.506022
'62_345_II',-0.359321
'62_346_II',-0.608661
'62_347_II',-0.532502
'62_348_II',-0.619161
'62_349_II',-0.462291
'62_350_II',-0.435686
'62_351_II',-0.415805
'62_352_II',-0.417087
'62_353_II',-0.511996
'62_354_II',-0.434136
'62_355_II',-0.560634
'62_356_II',-0.270252
'62_357_II',-0.432532
'62_358_II',-0.446562
'62_359_II',-0.234194
'62_360_II',-0.512640
'62_361_II',-0.496213
'62_362_II',-0.488430
'62_363_II',-0.380663
'62_364_II',-0.325697
'62_365_II',-0.289794
'62_366_II',-0.101382
'62_367_II',-0.578264
'62_368_II',-0.287107
'62_369_II',-0.398276
'62_370_II',-0.395710
'62_371_II',-0.393475
'62_372_II',-0.416729
'62_373_II',-0.151682
'62_374_II',-0.230115
'62_375_II',-0.306164
'62_376_II',-0.167452
'62_377_II',-0.447809
'62_378_II',-0.423563
'62_379_II',-0.502159
'62_380_II',-0.348111
'62_381_II',-0.255744
'62_382_II',-0.255311
'62_383_II',-0.244286
'62_384_II',-0.393892
'62_385_II',-0.165979
'62_386_II',-0.215785
'62_387_II',-0.159842
'62_388_II',-0.415771
'62_389_II',-0.188642
'62_390_II',-0.331815
'62_391_II',-0.245970
'62_392_II',-0.145954
'62_393_II',-0.183389
'62_394_II',-0.270718
'62_395_II',-0.177960
'62_396_II',-0.324724
'62_397_II',-0.049488
'62_398_II',-0.177951
'62_399_II',-0.038441
'62_400_II',-0.195788
'62_401_II',-0.188299
'62_402_II',-0.205136
'62_403_II',-0.033847
'62_404_II',-0.185127
'62_405_II',-0.042419
'62_406_II',-0.137794
'62_407_II',-0.289793
'62_408_II',-0.141856
'62_409_II',-0.195343
'62_410_II',-0.066633
'62_411_II',-0.181639
'62_412_II',0.037438
'62_413_II',-0.056816
'62_414_II',-0.058006
'62_415_II',0.032814
'62_416_II',0.071093
'62_417_II',-0.019823
'62_418_II',-0.087445
'62_419_II',-0.180232
'62_420_II',-0.063949
'62_421_II',-0.049575
'62_422_II',0.030339
'62_423_II',-0.007399
'62_424_II',0.103386
'62_425_II',-0.019236
'62_426_II',0.043817
'62_427_II',0.175368
'62_428_II',0.098588
'62_429_II',0.065823
'62_430_II',0.019037
'62_431_II',0.023296
'62_432_II',0.008925
'62_433_II',0.047233
'62_434_II',0.184224
'62_435_II',0.093768
'62_436_II',-0.011747
'62_437_II',0.307293
'62_438_II',0.169689
'62_439_II',0.004184
'62_440_II',0.107847
'62_441_II',0.170239
'62_442_II',0.336693
'62_443_II',0.062469
'62_444_II',0.277891
'62_445_II',0.327203
'62_446_II',0.131313
'62_447_II',0.173308
'62_448_II',0.104265
'62_449_II',0.194339
'62_450_II',0.217767
'62_451_II',0.294082
'62_452_II',0.343776
'62_453_II',0.166535
'62_454_II',0.051146
'62_455_II',0.252231
'62_456_II',0.290130
'62_457_II',0.292080
'62_458_II',0.240773
'62_459_II',0.292156
'62_460_II',0.437403
'62_461_II',0.330146
'62_462_II',0.260684
'62_463_II',0.253982
'62_464_II',0.292930
'62_465_II',0.479433
'62_466_II',0.303201
'62_467_II',0.325252
'62_468_II',0.284627
'62_469_II',0.448309
'62_470_II',0.539871
'62_471_II',0.394348
'62_472_II',0.362885
'62_473_II',0.363527
'62_474_II',0.126578
'62_475_II',0.444602
'62_476_II',0.388499
'62_477_II',0.422828
'62_478_II',0.313674
'62_479_II',0.351114
'62_480_II',0.353109
'62_481_II',0.500937
'62_482_II',0.365373
'62_483_II',0.615899
'62_484_II',0.455011
'62_485_II',0.288556
'62_486_II',0.407376
'62_487_II',0.359075
'62_488_II',0.208721
'62_489_II',0.591927
'62_490_II',0.506017
'62_491_II',0.492650
'62_492_II',0.459397
'62_493_II',0.308082
'62_494_II',0.401250
'62_495_II',0.537016
'62_496_II',0.350841
'62_497_II',0.205809
'62_498_II',0.439195
'62_499_II',0.450546
'62_500_II',0.480990
'62_501_II',0.542892
'62_502_II',0.536302
'62_503_II',0.500814
'62_504_II',0.596778
'62_505_II',0.327510
'62_506_II',0.531939
'62_507_II',0.546100
'62_508_II',0.361347
'62_509_II',0.336765
'62_510_II',0.414097
'62_511_II',0.424066
'62_512_II',0.566981
'62_513_II',0.431495
'62_514_II',0.408512
'62_515_II',0.434071
'62_516_II',0.608074
'62_517_II',0.498379
'62_518_II',0.479903
'62_519_II',0.487469
'62_520_II',0.628206
'62_521_II',0.424500
'62_522_II',0.631274
'62_523_II',0.520966
'62_524_II',0.483955
'62_525_II',0.750056
'62_526_II',0.394259
'62_527_II',0.464199
'62_528_II',0.375957
'62_529_II',0.593966
'62_530_II',0.667047
'62_531_II',0.664417
'62_532_II',0.619005
'62_533_II',0.475921
'62_534_II',0.458121
'62_535_II',0.326380
'62_536_II',0.695824
'62_537_II',0.537765
'62_538_II',0.440191
'62_539_II',0.620602
'62_540_II',0.388820
'62_541_II',0.524950
'62_542_II',0.465108
'62_543_II',0.544213
'62_544_II',0.471854
'62_545_II',0.330878
'62_546_II',0.481181
'62_547_II',0.576055
'62_548_II',0.465688
'62_549_II',0.543456
'62_550_II',0.358622
'62_551_II',0.457675
'62_552_II',0.394873
'62_553_II',0.528943
'62_554_II',0.454213
'62_555_II',0.516788
'62_556_II',0.553169
'62_557_II',0.510076
'62_558_II',0.464645
'62_559_II',0.333831
'62_560_II',0.429597
'62_561_II',0.372692
'62_562_II',0.387625
'62_563_II',0.380514
'62_564_II',0.315817
'62_565_II',0.213825
'62_566_II',0.338401
'62_567_II',0.420120
'62_568_II',0.261440
'62_569_II',0.393214
'62_570_II',0.576972
'62_571_II',0.484463
'62_572_II',0.541638
'62_573_II',0.411439
'62_574_II',0.484035
'62_575_II',0.289764
'62_576_II',0.292521
'62_577_II',0.077756
'62_578_II',0.464920
'62_579_II',0.494896
'62_580_II',0.280027
'62_581_II',0.304356
'62_582_II',0.248697
'62_583_II',0.356608
'62_584_II',0.425024
'62_585_II',0.132371
'62_586_II',0.341641
'62_587_II',0.267012
'62_588_II',0.299933
'62_589_II',0.328344
'62_590_II',0.257411
'62_591_II',0.259598
'62_592_II',0.242234
'62_593_II',0.354258
'62_594_II',0.292650
'62_595_II',0.266324
'62_596_II',0.110607
'62_597_II',0.193228
'62_598_II',0.314284
'62_599_II',0.221467
'62_600_II',0.276883
'62_601_II',0.380766
'62_602_II',0.301114
'62_603_II',0.199664
'62_604_II',0.132301
'62_605_II',-0.078944
'62_606_II',0.152543
'62_607_II',0.129714
'62_608_II',0.194248
'62_609_II',0.132683
'62_610_II',0.108864
'62_611_II',-0.044241
'62_612_II',0.032469
'62_613_II',0.166870
'62_614_II',0.283507
'62_615_II',0.094851
'62_616_II',0.130048
'62_617_II',0.185156
'62_618_II',0.001440
'62_619_II',0.111813
'62_620_II',-0.006331
'62_621_II',0.146771
'62_622_II',0.067986
'62_623_II',0.075236
'62_624_II',-0.040334
'62_625_II',0.101155
'62_626_II',0.231443
'62_627_II',-0.085305
'62_628_II',-0.025978
'62_629_II',0.023667
'62_630_II',0.071656
'62_631_II',-0.070428
'62_632_II',-0.305262
'62_633_II',0.106478
'62_634_II',0.039136
'62_635_II',-0.218676
'62_636_II',-0.112594
'62_637_II',0.097536
'62_638_II',0.078066
'62_639_II',0.019734
'62_640_II',-0.099141
'62_641_II',-0.080612
'62_642_II',-0.109365
'62_643_II',0.009212
'62_644_II',-0.198513
'62_645_II',-0.198800
